  -5.9999342e-02
  -6.4997368e-02
  -5.9994079e-02
  -7.4989474e-02
  -6.4983553e-02
  -6.9976316e-02
  -6.9967764e-02
  -8.9957896e-02
  -7.9946712e-02
  -9.4934213e-02
  -7.9920398e-02
  -9.4905267e-02
  -7.9888822e-02
  -9.4871060e-02
  -8.4851984e-02
  -8.9831592e-02
  -8.9809885e-02
  -9.9786863e-02
  -8.4762526e-02
  -1.0473687e-01
  -8.9709908e-02
  -4.4681626e-02
   5.3479699e-03
   1.5378880e-02
   4.5411105e-02
   1.5544464e-01
   1.4047950e-01
   4.5515666e-02
   5.5531468e-03
  -3.9408058e-02
  -8.4367949e-02
  -1.9932653e-01
  -1.9428379e-01
  -1.9923974e-01
  -1.9919438e-01
  -2.3914771e-01
  -1.2909972e-01
   3.4094958e-01
   1.1560002e+00
   1.4710521e+00
  -1.5389465e-01
  -8.2384010e-01
  -5.8878424e-01
  -3.4872707e-01
  -1.5366859e-01
  -1.6860880e-01
  -1.3854769e-01
  -1.5348528e-01
  -1.1342156e-01
  -1.2335652e-01
  -8.8290180e-02
  -9.3222527e-02
  -6.3153565e-02
  -5.3083293e-02
  -1.3011714e-02
  -2.9388251e-03
   3.7135372e-02
   4.7210876e-02
   9.2287688e-02
   1.1236581e-01
   1.5244523e-01
   1.8252597e-01
   2.0760801e-01
   2.2769135e-01
   2.3277601e-01
   2.2286196e-01
   2.3794923e-01
   2.3303779e-01
   2.0312767e-01
   1.7321884e-01
   1.2331132e-01
   7.8405109e-02
   4.3500196e-02
   2.3596587e-02
   8.6942798e-03
  -1.2067250e-03
  -1.1064280e-03
  -6.0048295e-03
  -1.0901930e-02
  -5.7977296e-03
   4.3077710e-03
  -5.8542851e-04
  -1.5477328e-02
  -1.5367929e-02
  -1.0257231e-02
  -2.0145235e-02
  -3.0031941e-02
  -3.9917349e-02
  -3.9801460e-02
  -5.4684275e-02
  -5.9565793e-02
  -6.4446015e-02
  -4.9324943e-02
  -5.4202575e-02
  -7.4078913e-02
  -6.8953956e-02
  -8.3827707e-02
  -5.8700164e-02
  -6.8571329e-02
  -7.3441201e-02
  -7.3309782e-02
  -7.8177071e-02
  -8.3043070e-02
  -6.7907779e-02
  -7.7771198e-02
  -8.7633328e-02
  -9.7494169e-02
  -8.2353722e-02
  -8.7211988e-02
  -6.2068966e-02
  -3.6924658e-02
   1.3220936e-02
   3.8367816e-02
   7.8515981e-02
   2.0366543e-01
   1.5381616e-01
   5.8968180e-02
  -5.8785203e-03
  -1.5723939e-02
  -1.0556808e-01
  -1.7041093e-01
  -1.8025251e-01
  -1.7509280e-01
  -1.7493182e-01
  -2.0476956e-01
   2.0393986e-02
   5.8555880e-01
   1.1957249e+00
   9.7089227e-01
  -1.4893908e-01
  -7.2876916e-01
  -6.2859796e-01
  -3.3842549e-01
  -1.6325175e-01
  -1.3307673e-01
  -1.3790044e-01
  -1.3272288e-01
  -9.2544054e-02
  -1.0736395e-01
  -7.7182585e-02
  -7.1999947e-02
  -5.6816041e-02
  -2.6630868e-02
  -6.4444289e-03
   1.8743277e-02
   3.3932247e-02
   5.9122482e-02
   9.4313981e-02
   1.2950674e-01
   1.5470077e-01
   1.7989605e-01
   2.2509260e-01
   2.0529041e-01
   2.3548947e-01
   2.2568980e-01
   2.3089138e-01
   2.3109422e-01
   1.7629832e-01
   1.5150367e-01
   1.1671028e-01
   6.6918145e-02
   5.2127261e-02
   1.2337629e-02
   2.2549250e-02
   1.2762121e-02
   2.9762432e-03
  -1.8083853e-03
   8.4082351e-03
   1.8626103e-02
  -1.1547811e-03
   1.4065581e-02
  -2.0712812e-02
  -1.5489959e-02
  -3.0265863e-02
  -2.0040524e-02
  -3.4813942e-02
  -5.4586120e-02
  -2.9357056e-02
  -5.4126753e-02
  -6.8895210e-02
  -5.8662430e-02
  -6.8428413e-02
  -5.8193159e-02
  -5.2956670e-02
  -6.2718946e-02
  -6.2479988e-02
  -7.2239798e-02
  -7.1998375e-02
  -8.1755722e-02
  -5.6511839e-02
  -9.1266726e-02
  -7.6020385e-02
  -7.0772816e-02
  -7.5524021e-02
  -5.0274000e-02
   1.9977245e-02
   3.5229715e-02
   8.0483407e-02
   2.1073832e-01
   1.7099446e-01
   1.0125181e-01
   2.1510384e-02
   1.7701763e-03
  -8.2968815e-02
  -1.4770659e-01
  -1.5244315e-01
  -1.9217849e-01
  -1.4691263e-01
  -2.1164555e-01
  -1.3772534e-03
   5.5889225e-01
   1.2391630e+00
   1.2494349e+00
  -7.5291993e-02
  -7.6501766e-01
  -6.5974212e-01
  -3.4446538e-01
  -1.3418743e-01
  -1.2390828e-01
  -1.0362793e-01
  -1.1834639e-01
  -8.8063636e-02
  -8.7779690e-02
  -5.7494546e-02
  -6.2208206e-02
  -1.6920671e-02
  -1.6631942e-02
   2.3657979e-02
   2.8949092e-02
   6.4241396e-02
   1.1453489e-01
   1.0982957e-01
   1.8012544e-01
   1.9042250e-01
   2.3572074e-01
   2.3602016e-01
   2.7632077e-01
   2.7162256e-01
   2.8192553e-01
   2.8222968e-01
   2.5253501e-01
   2.1784151e-01
   1.8814920e-01
   1.2845805e-01
   7.3768085e-02
   6.4079289e-02
   3.9391665e-02
   2.4705212e-02
   1.0019927e-02
   4.0335811e-02
   2.0652863e-02
   3.5971079e-02
   1.6290461e-02
   1.1611006e-02
   2.6932714e-02
   3.2255582e-02
   7.5796108e-03
   2.9047981e-03
  -6.7688571e-03
  -1.4413559e-03
   3.8873004e-03
  -3.0782889e-02
  -2.0451927e-02
  -5.0119812e-02
  -3.9786548e-02
  -3.9452134e-02
  -4.4116573e-02
  -5.3779865e-02
  -5.3442012e-02
  -3.3103014e-02
  -5.7762874e-02
  -5.7421593e-02
  -5.2079171e-02
  -5.6735610e-02
  -4.6390912e-02
  -5.1045077e-02
  -4.0698107e-02
   1.4649997e-02
   5.9999234e-02
   8.5349601e-02
   1.2070110e-01
   2.4105373e-01
   1.7640748e-01
   9.6762360e-02
   1.7118365e-02
  -7.5245072e-03
  -1.0216626e-01
  -1.5680689e-01
  -1.7144639e-01
  -1.4608479e-01
  -1.6072206e-01
  -2.1035822e-01
   1.2500674e-01
   9.2037280e-01
   1.5507400e+00
   6.8110827e-01
  -3.8352233e-01
  -7.5815182e-01
  -5.4278021e-01
  -2.5240750e-01
  -1.1703368e-01
  -1.2165876e-01
  -1.0628274e-01
  -7.5905616e-02
  -7.5527398e-02
  -5.5148084e-02
  -4.4767675e-02
  -2.4386173e-02
   9.9642128e-04
   3.1380106e-02
   4.1764880e-02
   7.7150742e-02
   1.1253769e-01
   1.3292572e-01
   1.6831484e-01
   2.2870504e-01
   2.6409632e-01
   2.6948867e-01
   2.9988211e-01
   3.0027662e-01
   3.3067221e-01
   3.2606887e-01
   3.0146660e-01
   2.8186540e-01
   2.3726527e-01
   1.9266621e-01
   1.5806821e-01
   9.3471279e-02
   5.3875409e-02
   3.9280601e-02
   3.4686853e-02
   3.0094163e-02
   3.0502530e-02
   3.5911953e-02
   3.1322429e-02
   5.1733957e-02
   3.2146537e-02
   3.2560165e-02
   4.2974841e-02
   2.8390563e-02
   8.8073299e-03
   1.4225140e-02
   1.4643991e-02
  -1.4936118e-02
  -4.5151881e-03
  -1.9093222e-02
  -8.6702200e-03
  -2.8246185e-02
  -1.2821117e-02
  -2.2395019e-02
  -2.6967892e-02
  -3.6539738e-02
  -2.1110558e-02
  -3.5680354e-02
  -3.0249127e-02
  -5.4816879e-02
  -1.4383612e-02
  -4.3949327e-02
  -2.3514026e-02
  -3.0777107e-03
   6.7359618e-02
   1.0279796e-01
   1.1323731e-01
   2.1867766e-01
   2.4411903e-01
   1.8956140e-01
   1.1500477e-01
   3.5449141e-02
   3.5894513e-02
  -8.3659116e-02
  -1.1821175e-01
  -1.2776339e-01
  -8.7314031e-02
  -1.2186368e-01
  -1.2641235e-01
   2.6403998e-01
   1.1794933e+00
   1.7899476e+00
   4.2540286e-01
  -5.2414088e-01
  -6.1368364e-01
  -3.6822542e-01
  -8.2766225e-02
  -7.2306056e-02
  -5.1844915e-02
  -6.1382802e-02
  -2.0919720e-02
  -2.5455670e-02
  -9.9906547e-03
  -9.5246748e-03
   1.0942267e-02
   3.6410171e-02
   8.1879033e-02
   9.2348852e-02
   1.1781963e-01
   1.4829136e-01
   1.7876404e-01
   2.0423767e-01
   2.7971225e-01
   3.0518777e-01
   3.4066424e-01
   3.3614166e-01
   3.7162001e-01
   3.7209931e-01
   3.8257954e-01
   3.6306071e-01
   3.3354281e-01
   2.7902585e-01
   2.3950981e-01
   1.9499471e-01
   1.5048053e-01
   1.0596728e-01
   1.0145495e-01
   8.1943539e-02
   8.2433050e-02
   8.2923480e-02
   8.8414826e-02
   1.0890709e-01
   1.0440026e-01
   1.0489434e-01
   1.0538933e-01
   1.0588523e-01
   1.0138203e-01
   8.6879741e-02
   9.2378349e-02
   7.2877857e-02
   7.3378262e-02
   7.3879562e-02
   6.4381757e-02
   5.4884844e-02
   6.5388820e-02
   5.0893685e-02
   5.6399437e-02
   4.6906072e-02
   5.7413591e-02
   2.7921990e-02
   3.8431267e-02
   2.3941422e-02
   3.4452451e-02
   1.9964354e-02
   3.0477127e-02
   2.5990770e-02
   3.6505280e-02
   2.2020656e-02
   4.7536895e-02
   2.8053995e-02
   4.3571955e-02
   4.9090773e-02
   1.2461045e-01
   1.5513097e-01
   1.6065235e-01
   2.6117458e-01
   2.7169766e-01
   1.9722158e-01
   1.4274635e-01
   8.3271955e-02
   7.3798404e-02
  -5.5674309e-02
  -6.0146186e-02
  -8.9617229e-02
  -4.9087440e-02
  -7.8556821e-02
  -5.3025373e-02
   3.5250690e-01
   1.2830400e+00
   1.8535739e+00
   2.8910866e-01
  -5.6535578e-01
  -5.2481941e-01
  -2.6928222e-01
  -1.3744218e-02
  -2.3205407e-02
   2.3342126e-03
  -7.1253619e-03
   1.8415868e-02
   1.3957899e-02
   4.9500731e-02
   5.0044361e-02
   8.5588787e-02
   1.0113401e-01
   1.2668002e-01
   1.4222682e-01
   1.7277441e-01
   1.9332278e-01
   2.3887194e-01
   2.5442188e-01
   3.0997260e-01
   3.3552410e-01
   3.7607637e-01
   3.9162942e-01
   4.0218323e-01
   4.0273782e-01
   4.1329317e-01
   4.0384929e-01
   3.7940617e-01
   3.3496382e-01
   2.9552222e-01
   2.5108138e-01
   2.1164129e-01
   1.7720195e-01
   1.7776337e-01
   1.6332553e-01
   1.6388844e-01
   1.6445209e-01
   1.7001649e-01
   1.6558162e-01
   1.8114750e-01
   1.7671410e-01
   1.7728145e-01
   1.7784952e-01
   1.7341832e-01
   1.5898785e-01
   1.5955810e-01
   1.5012908e-01
   1.4570078e-01
   1.4127319e-01
   1.3184632e-01
   1.2742017e-01
   1.2799473e-01
   1.1857000e-01
   1.2414597e-01
   1.1972265e-01
   1.2030004e-01
   1.1087812e-01
   1.2145690e-01
   1.1203638e-01
   1.2261656e-01
   1.0819743e-01
   1.1877898e-01
   1.0936123e-01
   1.1494416e-01
   9.0527777e-02
   1.0611207e-01
   8.1697049e-02
   9.7282702e-02
   8.2869029e-02
   1.0345603e-01
   9.9043700e-02
   1.0963204e-01
   9.5221043e-02
   1.1081071e-01
   1.4640104e-01
   2.0199203e-01
   2.1758368e-01
   2.4317598e-01
   3.5876893e-01
   3.2436253e-01
   2.3495679e-01
   1.9555168e-01
   1.4614722e-01
   1.2174341e-01
   7.3402288e-03
   1.2937687e-02
  -1.1464219e-02
   9.1345062e-03
  -3.5266138e-02
   7.0333845e-02
   5.4093445e-01
   1.4265357e+00
   1.7821375e+00
   7.2740012e-02
  -6.2665690e-01
  -3.7605320e-01
  -1.1044888e-01
   6.0156042e-02
   3.0761573e-02
   6.1367710e-02
   5.6974449e-02
   8.2581788e-02
   7.3189726e-02
   1.0379826e-01
   1.0940739e-01
   1.4001711e-01
   1.5562741e-01
   1.9123831e-01
   1.9684979e-01
   2.3746185e-01
   2.4807449e-01
   2.9368770e-01
   3.2430150e-01
   3.6991586e-01
   3.9053080e-01
   4.2114630e-01
   4.3176237e-01
   4.4737900e-01
   4.5299620e-01
   4.6361395e-01
   4.4423226e-01
   4.2485112e-01
   3.8047054e-01
   3.4109050e-01
   2.9171101e-01
   2.6233207e-01
   2.2795366e-01
   2.2357580e-01
   2.1919848e-01
   2.1982169e-01
   2.1044543e-01
   2.1106971e-01
   2.1169451e-01
   2.2231983e-01
   2.1794569e-01
   2.3357206e-01
   2.2419895e-01
   2.1482636e-01
   2.0545428e-01
   2.0108271e-01
   1.9671165e-01
   1.9734110e-01
   1.9297105e-01
   1.8360150e-01
   1.8923246e-01
   1.7486391e-01
   1.7049585e-01
   1.7112829e-01
   1.6676122e-01
   1.5739463e-01
   1.5802853e-01
   1.6366292e-01
   1.5929778e-01
   1.5493312e-01
   1.6556894e-01
   1.6620523e-01
   1.7184198e-01
   1.6747921e-01
   1.6311691e-01
   1.4875506e-01
   1.6439368e-01
   1.5003276e-01
   1.6567229e-01
   1.5631227e-01
   1.6195271e-01
   1.4759360e-01
   1.6323493e-01
   1.4887670e-01
   1.5951892e-01
   1.5016158e-01
   1.7580467e-01
   1.9144819e-01
   2.5709215e-01
   2.7773654e-01
   2.9338135e-01
   4.1902659e-01
   3.9467225e-01
   3.0031833e-01
   2.6096482e-01
   2.1661173e-01
   1.8725905e-01
   6.2906784e-02
   8.3554921e-02
   7.4203463e-02
   7.9852407e-02
   5.0501750e-02
   1.4615149e-01
   5.9680162e-01
   1.3624522e+00
   1.7431031e+00
   2.0875437e-01
  -4.8059394e-01
  -3.6994187e-01
  -1.1428942e-01
   1.2136340e-01
   1.0201660e-01
   1.1767018e-01
   1.0332412e-01
   1.3397843e-01
   1.2463310e-01
   1.5028814e-01
   1.6594353e-01
   2.0159928e-01
   1.9725539e-01
   2.2291185e-01
   2.4356866e-01
   2.7922581e-01
   3.0488331e-01
   3.2554115e-01
   3.5619934e-01
   4.0685785e-01
   4.4251670e-01
   4.7817589e-01
   4.6383540e-01
   4.8949524e-01
   5.0015541e-01
   5.1081589e-01
   5.0147670e-01
   4.9213782e-01
   4.4279925e-01
   3.9846100e-01
   3.5912305e-01
   3.1978542e-01
   3.0544808e-01
   2.8611105e-01
   2.7677432e-01
   2.7243788e-01
   2.6810174e-01
   2.7376588e-01
   2.7443032e-01
   2.7509504e-01
   2.7576005e-01
   2.7142533e-01
   2.7209090e-01
   2.5775674e-01
   2.5842285e-01
   2.3908923e-01
   2.2975589e-01
   2.2042280e-01
   2.2108999e-01
   2.2175743e-01
   2.1242512e-01
   2.1809308e-01
   2.0876129e-01
   2.1442974e-01
   2.2009845e-01
   2.1076740e-01
   2.1143659e-01
   2.1210602e-01
   1.9777569e-01
   2.1344559e-01
   2.0411573e-01
   2.0978609e-01
   2.0045668e-01
   2.1612750e-01
   2.0179853e-01
   2.1246979e-01
   2.0314126e-01
   2.1381295e-01
   1.9448485e-01
   2.1015695e-01
   1.9582926e-01
   2.2150178e-01
   2.1217450e-01
   2.0784741e-01
   2.2352052e-01
   2.8419383e-01
   3.2486732e-01
   3.5554100e-01
   4.5621487e-01
   4.6188892e-01
   3.9756315e-01
   3.1823756e-01
   2.6891214e-01
   2.5458689e-01
   1.3026182e-01
   1.3593691e-01
   1.1661216e-01
   1.3228758e-01
   1.0796315e-01
   2.0363889e-01
   6.4431477e-01
   1.4049908e+00
   1.7806670e+00
   3.7634333e-01
  -3.4798020e-01
  -3.7730358e-01
  -1.2662683e-01
   1.2905006e-01
   1.5472708e-01
   1.8040423e-01
   1.8108151e-01
   2.0175892e-01
   2.0243644e-01
   2.0811409e-01
   2.2379185e-01
   2.6446973e-01
   2.7014772e-01
   3.0582582e-01
   3.1650403e-01
   3.6718233e-01
   3.7286074e-01
   4.1853925e-01
   4.4421786e-01
   4.8989656e-01
   5.1057534e-01
   5.3625422e-01
   5.5193318e-01
   5.7261223e-01
   5.6829135e-01
   5.6897055e-01
   5.6464983e-01
   5.4032918e-01
   4.9600859e-01
   4.5668808e-01
   4.0236763e-01
   3.7804724e-01
   3.4372690e-01
   3.5440663e-01
   3.4008641e-01
   3.3576624e-01
   3.3644611e-01
   3.3712604e-01
   3.3780600e-01
   3.3848601e-01
   3.3416605e-01
   3.2984613e-01
   3.3552624e-01
   3.1620638e-01
   3.3688654e-01
   3.0256673e-01
   3.0324695e-01
   2.9892718e-01
   2.9960742e-01
   3.0528768e-01
   2.9096796e-01
   2.8164823e-01
   2.9732852e-01
   2.8300881e-01
   2.8368910e-01
   2.8436938e-01
   2.8504966e-01
   2.8072993e-01
   2.8641020e-01
   2.8209045e-01
   2.8777068e-01
   2.8345089e-01
   2.8413109e-01
   2.6981125e-01
   2.9549140e-01
   2.6617151e-01
   2.9185159e-01
   2.7253164e-01
   2.7821165e-01
   2.7389162e-01
   3.0957154e-01
   2.7025143e-01
   2.8593126e-01
   3.0661104e-01
   3.6729077e-01
   4.1797045e-01
   4.2365006e-01
   5.2432961e-01
   5.2000910e-01
   4.4568853e-01
   3.8136788e-01
   3.4704716e-01
   3.2272637e-01
   1.9840550e-01
   1.9908454e-01
   1.9476351e-01
   2.1044239e-01
   1.7112118e-01
   2.6679988e-01
   7.3247849e-01
   1.5331570e+00
   1.9238354e+00
   4.4451372e-01
  -3.1480807e-01
  -2.8412997e-01
  -3.3451984e-02
   2.2222589e-01
   2.2290365e-01
   2.4358130e-01
   2.4425882e-01
   2.7493622e-01
   2.7061350e-01
   2.9629064e-01
   2.9196766e-01
   3.1764454e-01
   3.3832128e-01
   3.7899788e-01
   3.8467435e-01
   4.2535067e-01
   4.5102684e-01
   4.8670286e-01
   5.0737872e-01
   5.6305444e-01
   5.7872999e-01
   6.1940538e-01
   6.4508061e-01
   6.6075568e-01
   6.5643057e-01
   6.6710530e-01
   6.3777984e-01
   6.0845422e-01
   5.6912841e-01
   5.3480242e-01
   4.9047624e-01
   4.3614988e-01
   4.2182333e-01
   4.1249658e-01
   3.9816964e-01
   3.9884250e-01
   3.9951516e-01
   4.0018761e-01
   4.0085986e-01
   4.0153190e-01
   4.0220372e-01
   4.0287534e-01
   3.9854673e-01
   3.9421791e-01
   3.9488886e-01
   3.9055958e-01
   3.7623008e-01
   3.7190035e-01
   3.6257039e-01
   3.6324018e-01
   3.5890974e-01
   3.6457906e-01
   3.4524814e-01
   3.4091696e-01
   3.3658554e-01
   3.4225387e-01
   3.2292194e-01
   3.2858975e-01
   3.2425730e-01
   3.4492459e-01
   3.3059161e-01
   3.3125837e-01
   3.2192485e-01
   3.3259106e-01
   3.2825700e-01
   3.3392265e-01
   3.2958803e-01
   3.3025312e-01
   3.2091792e-01
   3.3158243e-01
   3.1724665e-01
   3.3291057e-01
   3.2357420e-01
   3.3923752e-01
   3.6990055e-01
   4.2556326e-01
   4.6122567e-01
   4.7688777e-01
   5.9754955e-01
   5.6321102e-01
   4.8887216e-01
   4.3953299e-01
   3.9519349e-01
   3.5585366e-01
   2.4151350e-01
   2.4717302e-01
   2.2783219e-01
   2.5349103e-01
   2.0914952e-01
   3.2480768e-01
   8.1546548e-01
   1.6511229e+00
   1.9817800e+00
   4.1243680e-01
  -3.2690681e-01
  -1.8125077e-01
   6.9404905e-02
   2.8506021e-01
   2.7071516e-01
   2.9636973e-01
   2.8202393e-01
   3.1267775e-01
   2.9833120e-01
   3.1898426e-01
   3.2463694e-01
   3.6528924e-01
   3.8094115e-01
   4.1159266e-01
   4.2724378e-01
   4.5789451e-01
   4.8354483e-01
   5.2919476e-01
   5.5484427e-01
   6.0549338e-01
   6.3114209e-01
   6.7179037e-01
   6.7743825e-01
   6.9308570e-01
   6.8873274e-01
   6.9937935e-01
   6.8002553e-01
   6.5567129e-01
   6.1131662e-01
   5.7196151e-01
   5.3260596e-01
   5.0824998e-01
   4.7889355e-01
   4.5953668e-01
   4.5017936e-01
   4.4582160e-01
   4.5146338e-01
   4.5210470e-01
   4.5774557e-01
   4.6338598e-01
   4.6402592e-01
   4.6466540e-01
   4.6530441e-01
   4.6594295e-01
   4.6158101e-01
   4.5721860e-01
   4.4785571e-01
   4.4349234e-01
   4.3412849e-01
   4.2476415e-01
   4.1539932e-01
   4.1603399e-01
   4.1166818e-01
   4.1230186e-01
   4.1293505e-01
   4.1856773e-01
   4.1919991e-01
   4.1983158e-01
   4.1046274e-01
   4.1609339e-01
   4.2172352e-01
   4.3235313e-01
   4.2298223e-01
   4.2361079e-01
   4.2423884e-01
   4.2486635e-01
   4.0549334e-01
   4.1611978e-01
   4.0174570e-01
   4.1737107e-01
   4.0299590e-01
   4.0862019e-01
   3.9424393e-01
   3.9986712e-01
   3.8048976e-01
   3.9611185e-01
   3.7673337e-01
   3.9235434e-01
   3.7797475e-01
   3.8859459e-01
   4.0421386e-01
   4.6483256e-01
   5.0045069e-01
   5.0106824e-01
   5.9168522e-01
   6.2730161e-01
   5.6791742e-01
   4.9353265e-01
   4.4414728e-01
   4.4976133e-01
   3.2037478e-01
   3.0098764e-01
   2.9159989e-01
   3.0721155e-01
   2.9282260e-01
   2.7843305e-01
   6.4404288e-01
   1.5246521e+00
   2.1052607e+00
   7.4086871e-01
  -1.2352391e-01
  -1.6291716e-01
   7.7688968e-02
   3.2329447e-01
   3.1889934e-01
   3.2950358e-01
   3.3010718e-01
   3.5571015e-01
   3.5631248e-01
   3.8691416e-01
   3.8751520e-01
   4.1811560e-01
   4.2871534e-01
   4.6431443e-01
   4.8491286e-01
   5.1051064e-01
   5.3110776e-01
   5.7170421e-01
   5.9230000e-01
   6.4289512e-01
   6.7348957e-01
   6.9908335e-01
   7.0967645e-01
   7.2526887e-01
   7.2586061e-01
   7.3645167e-01
   7.3204205e-01
   7.1263174e-01
   6.8822073e-01
   6.5380903e-01
   6.0439664e-01
   5.6498355e-01
   5.3556976e-01
   5.1615526e-01
   5.0674006e-01
   5.0732415e-01
   5.0790753e-01
   5.1849020e-01
   5.1907215e-01
   5.2465338e-01
   5.2523389e-01
   5.4081368e-01
   5.3639274e-01
   5.2697108e-01
   5.2754868e-01
   5.2812555e-01
   5.1870169e-01
   5.1427708e-01
   5.0485174e-01
   5.0042565e-01
   5.0599881e-01
   4.9157123e-01
   4.8714290e-01
   4.9271381e-01
   4.8328397e-01
   4.7885337e-01
   4.8942201e-01
   5.0498989e-01
   4.9055700e-01
   4.8612334e-01
   4.9668891e-01
   4.9225371e-01
   4.8281774e-01
   4.8338098e-01
   4.7394345e-01
   4.7450513e-01
   4.7506603e-01
   4.7062614e-01
   4.6118546e-01
   4.7674398e-01
   4.6730172e-01
   4.6785865e-01
   4.6341479e-01
   4.7397012e-01
   4.6452464e-01
   4.6507836e-01
   4.6063127e-01
   4.8118337e-01
   4.6673466e-01
   4.6728512e-01
   4.5783477e-01
   4.5838360e-01
   4.7393160e-01
   5.2447877e-01
   5.8502512e-01
   5.9557063e-01
   6.6611531e-01
   7.1665915e-01
   6.7720216e-01
   5.9274432e-01
   5.3828564e-01
   5.4882611e-01
   4.1936574e-01
   3.8490451e-01
   3.7044244e-01
   3.9097950e-01
   3.7651571e-01
   3.5705106e-01
   6.9258554e-01
   1.4481192e+00
   1.9986519e+00
   9.8418380e-01
   8.9714808e-02
  -1.0975506e-01
   1.0577420e-01
   3.6130258e-01
   4.0683008e-01
   4.3235669e-01
   4.2288242e-01
   4.3840726e-01
   4.3393120e-01
   4.5945426e-01
   4.5497642e-01
   4.8549767e-01
   5.0601803e-01
   5.2153749e-01
   5.3705604e-01
   5.7257368e-01
   5.8309041e-01
   6.1360624e-01
   6.5412114e-01
   6.7963513e-01
   7.1014820e-01
   7.5066035e-01
   7.7617157e-01
   7.8668187e-01
   7.8719124e-01
   8.0769968e-01
   7.9820718e-01
   7.9871375e-01
   7.6421938e-01
   7.3472407e-01
   7.0022782e-01
   6.4573062e-01
   6.1123248e-01
   5.9173339e-01
   5.8723334e-01
   5.8273235e-01
   5.8323039e-01
   5.7872748e-01
   5.8422360e-01
   5.8971877e-01
   5.8521296e-01
   5.8570619e-01
   5.9119845e-01
   5.8168974e-01
   5.8718005e-01
   5.8266939e-01
   5.7315775e-01
   5.6864512e-01
   5.6413151e-01
   5.6961692e-01
   5.6010134e-01
   5.5558477e-01
   5.5606720e-01
   5.4654864e-01
   5.5202909e-01
   5.5250853e-01
   5.4798697e-01
   5.4346441e-01
   5.4394085e-01
   5.3941627e-01
   5.4489069e-01
   5.3536409e-01
   5.3583647e-01
   5.3130784e-01
   5.3177819e-01
   5.2724752e-01
   5.3771583e-01
   5.2818311e-01
   5.2864936e-01
   5.2911458e-01
   5.3457876e-01
   5.3504192e-01
   5.3550403e-01
   5.2596511e-01
   5.3642515e-01
   5.1688414e-01
   5.2234208e-01
   5.2279898e-01
   5.2325483e-01
   5.1870963e-01
   5.2916337e-01
   5.3461605e-01
   5.9006768e-01
   6.3051824e-01
   6.5096775e-01
   7.0141618e-01
   8.0186355e-01
   7.4730985e-01
   6.5775508e-01
   5.9819923e-01
   6.0364231e-01
   4.8408431e-01
   4.4452523e-01
   4.3496507e-01
   4.4540382e-01
   4.3084149e-01
   3.9627807e-01
   7.3171356e-01
   1.4421479e+00
   1.9575812e+00
   1.1380135e+00
   2.7344455e-01
  -6.6125447e-02
   6.9303450e-02
   3.5973124e-01
   4.6515793e-01
   4.6558350e-01
   4.7600796e-01
   4.9643131e-01
   4.9685354e-01
   5.2227466e-01
   5.2269465e-01
   5.3811352e-01
   5.5353127e-01
   5.8894789e-01
   6.1436338e-01
   6.4477774e-01
   6.5519097e-01
   6.9560306e-01
   7.1101402e-01
   7.4642384e-01
   7.7683252e-01
   8.2224005e-01
   8.2764644e-01
   8.3805168e-01
   8.4345578e-01
   8.6885872e-01
   8.6926051e-01
   8.4966114e-01
   8.1506062e-01
   7.9045894e-01
   7.3585610e-01
   6.9625209e-01
   6.7164692e-01
   6.5704058e-01
   6.2743307e-01
   6.3782439e-01
   6.5321454e-01
   6.4860351e-01
   6.4399131e-01
   6.4437793e-01
   6.5476336e-01
   6.4514761e-01
   6.6053068e-01
   6.4091256e-01
   6.3129325e-01
   6.3167275e-01
   6.2205106e-01
   6.2242817e-01
   6.0780409e-01
   6.1817880e-01
   6.1355232e-01
   5.9392463e-01
   5.9929574e-01
   6.0466564e-01
   6.0503434e-01
   6.0540182e-01
   5.9076809e-01
   5.9113315e-01
   5.9649699e-01
   6.0185961e-01
   6.0222101e-01
   5.9258119e-01
   6.0294015e-01
   5.9329788e-01
   6.0365438e-01
   5.9900965e-01
   5.9936370e-01
   5.8971651e-01
   5.9006808e-01
   5.7041841e-01
   5.8076751e-01
   5.7611537e-01
   5.7646198e-01
   5.6180735e-01
   5.8715147e-01
   5.7749435e-01
   5.7783597e-01
   5.7317634e-01
   5.6851546e-01
   5.9885332e-01
   6.4918993e-01
   6.9452527e-01
   7.1485935e-01
   8.2019218e-01
   8.2552373e-01
   7.4085402e-01
   6.6618304e-01
   6.1651079e-01
   5.8683727e-01
   4.6716247e-01
   4.7748640e-01
   4.6280905e-01
   4.7313042e-01
   4.2345051e-01
   5.4376932e-01
   1.0090868e+00
   1.7394031e+00
   2.0947180e+00
   7.1003168e-01
  -1.9655960e-02
  -2.4344889e-02
   2.1096489e-01
   4.6127336e-01
   4.7658054e-01
   4.9688642e-01
   4.9219100e-01
   5.1749427e-01
   5.2779623e-01
   5.5309689e-01
   5.4339624e-01
   5.7869428e-01
   5.9399100e-01
   6.2428641e-01
   6.4458050e-01
   6.8487328e-01
   6.9016473e-01
   7.3545487e-01
   7.7074368e-01
   8.1603116e-01
   8.4131732e-01
   8.7160215e-01
   8.8688565e-01
   9.0216782e-01
   9.0744865e-01
   9.1272815e-01
   8.9800631e-01
   8.6828314e-01
   8.3355862e-01
   7.9383277e-01
   7.4910556e-01
   7.1437702e-01
   6.8464713e-01
   6.6991588e-01
   6.6518329e-01
   6.6544935e-01
   6.6571405e-01
   6.5597740e-01
   6.6123939e-01
   6.6650003e-01
   6.7175930e-01
   6.5701721e-01
   6.6227376e-01
   6.5752895e-01
   6.5778277e-01
   6.3803522e-01
   6.3328630e-01
   6.4353601e-01
   6.4378434e-01
   6.4403130e-01
   6.2927689e-01
   6.1952110e-01
   6.2476393e-01
   6.1500538e-01
   6.2024545e-01
   6.2048413e-01
   6.1572143e-01
   6.1095734e-01
   6.2119186e-01
   6.1142500e-01
   6.1165674e-01
   6.1188709e-01
   6.0711604e-01
   6.0234360e-01
   6.1256976e-01
   5.9779452e-01
   6.0801788e-01
   5.8823984e-01
   6.0846039e-01
   5.8867954e-01
   6.0889728e-01
   5.8911362e-01
   5.9932854e-01
   5.9454206e-01
   5.8975416e-01
   5.6496484e-01
   5.9517411e-01
   6.2038197e-01
   6.7558840e-01
   7.1579342e-01
   7.3099701e-01
   8.3619918e-01
   8.2139993e-01
   7.5159925e-01
   7.0179714e-01
   6.4699360e-01
   6.3718864e-01
   5.0738224e-01
   5.0257441e-01
   4.7776514e-01
   5.0295444e-01
   4.6314230e-01
   5.4832873e-01
   9.7851371e-01
   1.8186972e+00
   2.2588793e+00
   7.3906000e-01
  -1.5760792e-02
   5.4416969e-02
   2.8459328e-01
   5.0976814e-01
   4.9494155e-01
   5.3011351e-01
   5.2028402e-01
   5.3545307e-01
   5.3062066e-01
   5.5078679e-01
   5.5595147e-01
   5.8611468e-01
   5.9127643e-01
   6.2643672e-01
   6.4159554e-01
   6.7675290e-01
   6.9190879e-01
   7.2706321e-01
   7.5721616e-01
   8.1736764e-01
   8.4751765e-01
   8.7766618e-01
   8.8781324e-01
   9.0795882e-01
   9.1310293e-01
   9.1824555e-01
   9.0838669e-01
   8.8852636e-01
   8.5366453e-01
   8.1880123e-01
   7.6893644e-01
   7.2907016e-01
   6.8920240e-01
   6.8433314e-01
   6.5946240e-01
   6.6459016e-01
   6.6471643e-01
   6.6484120e-01
   6.5996449e-01
   6.7008627e-01
   6.7520655e-01
   6.7532534e-01
   6.7044263e-01
   6.6055841e-01
   6.6067269e-01
   6.5578547e-01
   6.5089674e-01
   6.3600651e-01
   6.2111477e-01
   6.2622152e-01
   6.2132676e-01
   6.2643049e-01
   6.0653271e-01
   6.0663341e-01
   6.0673260e-01
   5.9683028e-01
   6.0692643e-01
   6.0202107e-01
   6.0211419e-01
   5.9720579e-01
   6.0229587e-01
   5.9238443e-01
   6.0247146e-01
   6.0255697e-01
   6.0264095e-01
   5.9772340e-01
   5.9280433e-01
   5.8788373e-01
   6.0296160e-01
   5.9803793e-01
   6.0311274e-01
   5.7818601e-01
   5.8325774e-01
   5.9832794e-01
   5.9339661e-01
   6.0346373e-01
   6.5352932e-01
   7.0859336e-01
   6.9865587e-01
   7.6371683e-01
   8.2877625e-01
   7.8383413e-01
   7.0389046e-01
   6.3894525e-01
   6.4399849e-01
   5.2905018e-01
   4.7910032e-01
   4.6914891e-01
   4.8419595e-01
   4.8424144e-01
   4.5428537e-01
   7.7432775e-01
   1.5143686e+00
   2.0694078e+00
   1.2644456e+00
   3.2948171e-01
  -5.4836926e-03
   1.7454934e-01
   4.4458082e-01
   5.1961073e-01
   5.2963908e-01
   5.2966586e-01
   5.4469108e-01
   5.3971474e-01
   5.5973683e-01
   5.7975735e-01
   6.0477630e-01
   6.1979368e-01
   6.4480949e-01
   6.6482374e-01
   6.8983641e-01
   7.1484750e-01
   7.4985702e-01
   7.7986497e-01
   8.1987134e-01
   8.4987614e-01
   8.8987936e-01
   9.0988100e-01
   9.2988106e-01
   9.3987954e-01
   9.3987644e-01
   9.3987176e-01
   9.1486549e-01
   8.7985764e-01
   8.3484821e-01
   7.9483720e-01
   7.4982459e-01
   7.1481040e-01
   6.8979463e-01
   6.8977726e-01
   6.7975831e-01
   6.7973776e-01
   6.7471563e-01
   6.7969190e-01
   6.7966658e-01
   6.7963967e-01
   6.7961116e-01
   6.7958106e-01
   6.7954936e-01
   6.7951607e-01
   6.6948118e-01
   6.6944469e-01
   6.6440661e-01
   6.5436692e-01
   6.4932564e-01
   6.3928275e-01
   6.3423826e-01
   6.2419218e-01
   6.2414448e-01
   6.1909519e-01
   6.1904429e-01
   6.1399178e-01
   6.1393767e-01
   6.1388195e-01
   6.1882463e-01
   6.1376570e-01
   6.1370516e-01
   5.9864301e-01
   6.0357925e-01
   5.9851388e-01
   6.0844690e-01
   5.9337830e-01
   6.0830810e-01
   5.9323628e-01
   6.0816285e-01
   5.9308780e-01
   6.0801114e-01
   5.8793286e-01
   5.9785296e-01
   5.8777145e-01
   6.0268832e-01
   5.8260358e-01
   5.9751721e-01
   6.2242923e-01
   6.8233962e-01
   7.1724839e-01
   7.1715555e-01
   8.2706108e-01
   8.1696499e-01
   7.4186727e-01
   6.8176794e-01
   6.3166698e-01
   6.2156439e-01
   4.8646018e-01
   4.8635434e-01
   4.6624688e-01
   4.9613779e-01
   4.7102707e-01
   5.1591473e-01
   9.3080075e-01
   1.8256852e+00
   2.3155679e+00
   6.8044906e-01
  -4.4671435e-02
   8.5206442e-02
   3.1008269e-01
   5.1995730e-01
   4.9483028e-01
   5.2970163e-01
   5.1957135e-01
   5.4943943e-01
   5.4430587e-01
   5.7917069e-01
   5.7903386e-01
   6.1389540e-01
   6.1875531e-01
   6.5861358e-01
   6.6847021e-01
   6.9832520e-01
   7.1817856e-01
   7.5803028e-01
   7.8788036e-01
   8.3772880e-01
   8.7757560e-01
   9.1742076e-01
   9.2226428e-01
   9.3210616e-01
   9.2694640e-01
   9.2178500e-01
   9.2162195e-01
   9.0145726e-01
   8.5629094e-01
   8.1612296e-01
   7.7595335e-01
   7.3078209e-01
   6.9560919e-01
   6.7543464e-01
   6.7025845e-01
   6.6008061e-01
   6.6990113e-01
   6.6972000e-01
   6.6953722e-01
   6.6935280e-01
   6.6916673e-01
   6.6897902e-01
   6.7378966e-01
   6.6859865e-01
   6.6340599e-01
   6.6321169e-01
   6.5801574e-01
   6.5281813e-01
   6.4761888e-01
   6.4241798e-01
   6.3221543e-01
   6.2201123e-01
   6.3180539e-01
   6.1659789e-01
   6.1638874e-01
   6.1117794e-01
   6.1096549e-01
   6.0575138e-01
   6.1053563e-01
   6.0531823e-01
   6.0009917e-01
   5.9987846e-01
   6.0465610e-01
   6.0443209e-01
   6.1420642e-01
   5.9397910e-01
   6.0375013e-01
   5.9851951e-01
   6.0828723e-01
   5.9305330e-01
   6.0281771e-01
   5.8258047e-01
   5.9734158e-01
   5.8210103e-01
   5.8185883e-01
   5.7661498e-01
   5.8636947e-01
   5.7612231e-01
   5.8587349e-01
   5.7062302e-01
   5.8037089e-01
   6.1511710e-01
   6.5986167e-01
   6.9960457e-01
   7.2934582e-01
   8.3908542e-01
   8.0382336e-01
   7.0855965e-01
   6.5829428e-01
   6.2302725e-01
   5.7275857e-01
   4.7248823e-01
   4.7221624e-01
   4.6694259e-01
   4.8666728e-01
   4.3139032e-01
   6.3111170e-01
   1.1558314e+00
   1.7855495e+00
   1.8402659e+00
   5.8498068e-01
  -4.5306222e-02
   3.4405225e-02
   2.9911502e-01
   5.0382315e-01
   4.9352963e-01
   5.1323445e-01
   5.0793762e-01
   5.3263913e-01
   5.3733898e-01
   5.5703718e-01
   5.6673373e-01
   5.7642861e-01
   5.8612185e-01
   6.2081342e-01
   6.3550334e-01
   6.6019161e-01
   6.7987822e-01
   7.2956317e-01
   7.4924647e-01
   7.8892812e-01
   8.1860810e-01
   8.6328644e-01
   8.7796312e-01
   8.9263814e-01
   8.9231151e-01
   9.0698323e-01
   8.8665329e-01
   8.7132169e-01
   8.2598845e-01
   8.0565354e-01
   7.6031699e-01
   7.0997878e-01
   6.8963892e-01
   6.8929740e-01
   6.5895423e-01
   6.4360941e-01
   6.4826293e-01
   6.4791481e-01
   6.5256503e-01
   6.4221359e-01
   6.4186051e-01
   6.3650577e-01
   6.3614938e-01
   6.3079134e-01
   6.2043165e-01
   6.1007031e-01
   6.0970732e-01
   6.1434268e-01
   5.9897638e-01
   6.0860844e-01
   5.7823884e-01
   5.8786760e-01
   5.9249471e-01
   5.9212016e-01
   5.8174397e-01
   5.7636613e-01
   5.8098665e-01
   5.7060551e-01
   5.7022273e-01
   5.7483830e-01
   5.7945222e-01
   5.7406449e-01
   5.6367512e-01
   5.7828411e-01
   5.5789144e-01
   5.7249713e-01
   5.5710118e-01
   5.5670358e-01
   5.5130434e-01
   5.5090345e-01
   5.4050092e-01
   5.5009674e-01
   5.3969092e-01
   5.5928346e-01
   5.5887436e-01
   6.0846361e-01
   6.5305122e-01
   6.7263720e-01
   7.2722153e-01
   8.1180422e-01
   7.5638526e-01
   6.6596467e-01
   5.9554245e-01
   6.0511858e-01
   4.9469307e-01
   4.6926592e-01
   4.5383714e-01
   4.5840672e-01
   4.4297466e-01
   4.2254097e-01
   7.6710564e-01
   1.4666687e+00
   1.9712301e+00
   1.1957898e+00
   3.2534798e-01
  -4.5095526e-02
   7.4459339e-02
   3.4401257e-01
   4.5856417e-01
   4.6811414e-01
   4.7266248e-01
   4.8220918e-01
   4.7675426e-01
   4.9129771e-01
   5.1083953e-01
   5.3037971e-01
   5.4491828e-01
   5.5945521e-01
   5.7399052e-01
   6.1352420e-01
   6.3305625e-01
   6.7758668e-01
   6.7711548e-01
   7.1664266e-01
   7.5116822e-01
   8.0069215e-01
   8.0521446e-01
   8.3473515e-01
   8.2925422e-01
   8.2877166e-01
   8.3828749e-01
   8.2280169e-01
   7.8231428e-01
   7.4182525e-01
   6.9633460e-01
   6.5584234e-01
   6.3034845e-01
   6.1485295e-01
   5.9935584e-01
   5.8885711e-01
   5.9335677e-01
   6.0285481e-01
   6.0235125e-01
   6.0184607e-01
   6.0133927e-01
   6.0083087e-01
   6.0032086e-01
   5.9480924e-01
   5.9929601e-01
   5.7378117e-01
   5.7326472e-01
   5.7274667e-01
   5.7222701e-01
   5.6670575e-01
   5.4618288e-01
   5.6065841e-01
   5.4513234e-01
   5.4960466e-01
   5.3907538e-01
   5.4354450e-01
   5.3801203e-01
   5.3747795e-01
   5.1194227e-01
   5.4140500e-01
   5.2586613e-01
   5.4032566e-01
   5.0978360e-01
   5.1423994e-01
   5.1369469e-01
   5.1314784e-01
   5.0259940e-01
   5.2704938e-01
   5.0649776e-01
   5.0094455e-01
   5.1038975e-01
   5.6483336e-01
   6.0427539e-01
   6.2871583e-01
   7.0815468e-01
   7.4759195e-01
   6.9702763e-01
   6.0146173e-01
   5.3589425e-01
   5.4032519e-01
   4.1475455e-01
   3.9418232e-01
   3.6860852e-01
   3.9803314e-01
   3.7245618e-01
   3.6687765e-01
   7.3629754e-01
   1.5257159e+00
   2.0501326e+00
   9.4954776e-01
   1.2396136e-01
  -1.2662661e-01
   4.7783845e-02
   3.2219273e-01
   4.0160005e-01
   4.0600580e-01
   4.0540999e-01
   4.3481261e-01
   4.3421367e-01
   4.5861316e-01
   4.5301109e-01
   4.8240746e-01
   4.8680226e-01
   5.2119551e-01
   5.3058720e-01
   5.7497734e-01
   5.8436591e-01
   6.0375293e-01
   6.5313840e-01
   6.9252231e-01
   7.3190467e-01
   7.6628547e-01
   7.7066473e-01
   8.1004244e-01
   7.9441860e-01
   8.0879321e-01
   7.8316627e-01
   7.8253779e-01
   7.2690776e-01
   6.8127620e-01
   6.5564308e-01
   5.9000843e-01
   5.6437224e-01
   5.3873451e-01
   5.3309524e-01
   5.1745443e-01
   5.2681209e-01
   5.2116821e-01
   5.2052280e-01
   5.1987585e-01
   5.1422738e-01
   5.0357737e-01
   5.0792584e-01
   5.1227277e-01
   5.0661818e-01
   4.9096207e-01
   4.9530443e-01
   5.0464526e-01
   4.7398457e-01
   4.8332236e-01
   4.7765863e-01
   4.8199339e-01
   4.4632662e-01
   4.4565834e-01
   4.3998854e-01
   4.7431722e-01
   4.4364440e-01
   4.2297006e-01
   4.4729421e-01
   4.5161685e-01
   4.1593798e-01
   4.5525761e-01
   4.0957572e-01
   4.1889234e-01
   4.2820745e-01
   4.4752105e-01
   4.6683316e-01
   5.4114377e-01
   5.7045287e-01
   5.8976048e-01
   7.2406660e-01
   6.8337122e-01
   6.0267434e-01
   5.2697597e-01
   4.9127611e-01
   4.3557476e-01
   3.3987192e-01
   3.4416760e-01
   3.3346179e-01
   3.5275449e-01
   2.8704571e-01
   4.4133545e-01
   9.6562370e-01
   1.6999105e+00
   1.9341958e+00
   5.5847960e-01
  -1.9223806e-01
  -1.5795719e-01
   1.0632221e-01
   3.5060013e-01
   3.3987659e-01
   3.7415157e-01
   3.8342509e-01
   4.0269714e-01
   3.9196772e-01
   4.1123685e-01
   4.2550451e-01
   4.5477070e-01
   4.6403544e-01
   4.9329872e-01
   5.0256054e-01
   5.3182091e-01
   5.6107983e-01
   6.0533729e-01
   6.3459330e-01
   6.7884785e-01
   6.8810097e-01
   7.3735263e-01
   7.5160285e-01
   7.6585162e-01
   7.6509895e-01
   7.6934484e-01
   7.5358929e-01
   7.1283230e-01
   6.6707387e-01
   6.0631401e-01
   5.5555271e-01
   5.3478998e-01
   4.9402582e-01
   4.8326023e-01
   4.6749321e-01
   4.7172476e-01
   4.6095489e-01
   4.5018359e-01
   4.4941087e-01
   4.5863673e-01
   4.6786117e-01
   4.5708419e-01
   4.5130580e-01
   4.5052599e-01
   4.4474477e-01
   4.2896213e-01
   4.3817809e-01
   4.1739263e-01
   4.1660577e-01
   4.0581750e-01
   4.1002783e-01
   3.9923676e-01
   3.9844428e-01
   3.8765041e-01
   3.9685513e-01
   3.8605846e-01
   3.8026040e-01
   3.7446094e-01
   3.7866009e-01
   3.7285784e-01
   3.7205421e-01
   3.6124920e-01
   3.6544279e-01
   3.5963501e-01
   3.6382584e-01
   3.7801529e-01
   4.4220336e-01
   4.9639005e-01
   4.8057537e-01
   5.5975931e-01
   5.9394188e-01
   5.4812308e-01
   4.6730291e-01
   4.1148137e-01
   4.0065847e-01
   2.8483420e-01
   2.4900857e-01
   2.4818158e-01
   2.5235323e-01
   2.4652352e-01
   2.1069245e-01
   5.1986003e-01
   1.3440263e+00
   2.0281911e+00
   1.2373547e+00
   7.1516835e-02
  -2.6432233e-01
  -2.5162846e-02
   2.2399530e-01
   2.6815210e-01
   2.7230757e-01
   2.8146169e-01
   2.9061449e-01
   2.9976594e-01
   3.1891607e-01
   3.2806486e-01
   3.5221233e-01
   3.6635846e-01
   3.9550328e-01
   4.1964676e-01
   4.3878893e-01
   4.7292978e-01
   5.0706930e-01
   5.4620752e-01
   5.8534441e-01
   6.2447999e-01
   6.6361427e-01
   6.9274723e-01
   7.0187888e-01
   7.0600923e-01
   7.1013828e-01
   6.9926602e-01
   6.6839246e-01
   6.2251760e-01
   5.7164145e-01
   5.2076400e-01
   4.7988525e-01
   4.4900522e-01
   4.2312389e-01
   4.1724128e-01
   4.1135738e-01
   4.1047220e-01
   4.1458573e-01
   4.1369799e-01
   4.1280896e-01
   4.1691866e-01
   4.1602709e-01
   4.1513424e-01
   4.1424012e-01
   4.0334473e-01
   3.9744807e-01
   3.9155015e-01
   3.8565096e-01
   3.7475051e-01
   3.6884880e-01
   3.5794583e-01
   3.5204161e-01
   3.4613613e-01
   3.4022940e-01
   3.3932142e-01
   3.3841219e-01
   3.3750172e-01
   3.2659000e-01
   3.3567704e-01
   3.2476283e-01
   3.2384739e-01
   3.2293071e-01
   3.2201279e-01
   3.1609365e-01
   3.2017327e-01
   3.0925166e-01
   3.2332882e-01
   3.1240476e-01
   3.2147948e-01
   3.1055297e-01
   3.0962525e-01
   2.9869630e-01
   3.0776615e-01
   2.9683477e-01
   3.0590219e-01
   2.8996840e-01
   2.9903340e-01
   3.2309719e-01
   3.7215978e-01
   4.1622117e-01
   4.1028136e-01
   5.0434036e-01
   5.1839815e-01
   4.6745476e-01
   3.9151017e-01
   3.4556439e-01
   3.3961743e-01
   2.1366928e-01
   1.8771995e-01
   1.8676943e-01
   2.2081774e-01
   1.8486487e-01
   1.7391082e-01
   5.1795560e-01
   1.4319992e+00
   2.0810417e+00
   7.4508293e-01
  -2.5587696e-01
  -2.6683801e-01
  -2.7800226e-02
   2.0123640e-01
   1.9527187e-01
   2.0930619e-01
   1.9833936e-01
   2.2237137e-01
   2.2140224e-01
   2.2543196e-01
   2.4446054e-01
   2.6848797e-01
   2.8251427e-01
   3.1653943e-01
   3.2556345e-01
   3.4958634e-01
   3.7860810e-01
   4.3262873e-01
   4.4164823e-01
   4.9566661e-01
   5.1968387e-01
   5.6870000e-01
   5.8271502e-01
   5.9672892e-01
   6.1574171e-01
   6.1475338e-01
   6.0376395e-01
   5.9777341e-01
   5.4678176e-01
   5.1078901e-01
   4.4479516e-01
   4.0380021e-01
   3.7280417e-01
   3.5680703e-01
   3.3080880e-01
   3.1980947e-01
   3.2380906e-01
   3.2280757e-01
   3.0680499e-01
   3.1580133e-01
   3.0479659e-01
   3.1879078e-01
   3.2278389e-01
   2.9177592e-01
   3.0076689e-01
   2.9475679e-01
   3.0374563e-01
   2.7773340e-01
   2.8172011e-01
   2.7070576e-01
   2.5969036e-01
   2.6867390e-01
   2.5265639e-01
   2.5163783e-01
   2.5561822e-01
   2.3959756e-01
   2.4857587e-01
   2.3755313e-01
   2.4652936e-01
   2.2050454e-01
   2.2447870e-01
   2.3345182e-01
   2.3742391e-01
   2.2139498e-01
   2.1536502e-01
   2.1933404e-01
   1.9330204e-01
   2.0726902e-01
   2.1623499e-01
   2.1019994e-01
   1.9416388e-01
   2.0312682e-01
   1.9208874e-01
   2.1104967e-01
   2.7000959e-01
   2.9396851e-01
   3.1792644e-01
   3.7688337e-01
   4.5583931e-01
   4.0979426e-01
   3.2374822e-01
   2.4770119e-01
   2.5665319e-01
   1.2560420e-01
   8.4554236e-02
   7.8503295e-02
   9.2451381e-02
   8.1398496e-02
   7.0344642e-02
   3.8928982e-01
   1.0532340e+00
   1.5371773e+00
   8.6611959e-01
  -1.4939073e-02
  -4.5099869e-01
  -3.4705926e-01
  -6.3120773e-02
   8.5816763e-02
   9.9753354e-02
   1.1368900e-01
   1.2262371e-01
   1.2155748e-01
   1.3549032e-01
   1.4442222e-01
   1.7335320e-01
   2.0228324e-01
   2.2121236e-01
   2.3014056e-01
   2.5906783e-01
   2.6299419e-01
   3.1191964e-01
   3.3084417e-01
   3.4976778e-01
   3.9369050e-01
   4.1761230e-01
   4.5653320e-01
   4.7545320e-01
   4.7437230e-01
   4.9329051e-01
   4.7720782e-01
   4.6112424e-01
   4.3503977e-01
   4.0395442e-01
   3.6286818e-01
   3.0678106e-01
   2.7569307e-01
   2.5960419e-01
   2.3851445e-01
   2.2742383e-01
   2.2133234e-01
   2.3023999e-01
   2.3414677e-01
   2.2805269e-01
   2.2695775e-01
   2.2086196e-01
   2.1476531e-01
   2.1366781e-01
   1.9256946e-01
   1.9147027e-01
   2.0037023e-01
   1.9926936e-01
   1.6816764e-01
   1.6706509e-01
   1.5096170e-01
   1.5985748e-01
   1.4875243e-01
   1.4764656e-01
   1.4153987e-01
   1.4043235e-01
   1.2932402e-01
   1.2321487e-01
   1.2210490e-01
   1.2599413e-01
   1.2988254e-01
   1.3877016e-01
   1.1265697e-01
   9.6542975e-02
   1.3042819e-01
   9.4312602e-02
   1.2319622e-01
   1.0207906e-01
   1.2596110e-01
   9.9842363e-02
   1.0872284e-01
   1.0260254e-01
   1.2148146e-01
   1.2035961e-01
   1.8423698e-01
   2.0811359e-01
   2.3198943e-01
   3.2086450e-01
   3.8473881e-01
   2.9861237e-01
   2.1248516e-01
   1.5135721e-01
   1.4522850e-01
   9.0990454e-03
   2.9688437e-03
   1.8378987e-03
   5.7062130e-03
  -3.0426211e-02
   8.4406303e-03
   4.3730674e-01
   1.2461721e+00
   1.7400368e+00
   3.7890069e-01
  -4.0223610e-01
  -5.4337362e-01
  -3.4451185e-01
  -7.5650799e-02
  -6.7904576e-03
   7.0691748e-03
   1.5928101e-02
   2.4786323e-02
   3.3643845e-02
   5.2500668e-02
   4.6356796e-02
   1.0021223e-01
   7.9066975e-02
   1.3792103e-01
   1.2177440e-01
   1.7562709e-01
   1.7947910e-01
   2.0833044e-01
   2.4718109e-01
   3.0103108e-01
   3.1488040e-01
   3.6872905e-01
   3.8257704e-01
   4.1642437e-01
   3.9527104e-01
   3.8911705e-01
   3.8796241e-01
   3.5680713e-01
   3.2065119e-01
   2.7449461e-01
   2.1333739e-01
   1.9217953e-01
   1.4102103e-01
   1.2986190e-01
   1.1870214e-01
   9.2541748e-02
   1.1138073e-01
   1.0521909e-01
   1.0405683e-01
   1.0789396e-01
   1.1673047e-01
   1.2056636e-01
   8.9401653e-02
   1.0323633e-01
   8.7070413e-02
   7.5903890e-02
   7.9736769e-02
   6.3569052e-02
   5.7400743e-02
   5.1231843e-02
   3.5062357e-02
   2.8892286e-02
   1.7721634e-02
   3.6550402e-02
   3.0378594e-02
   2.4206213e-02
   8.0332614e-03
   1.6859742e-02
   6.8565689e-04
   9.5110097e-03
  -1.6641970e-03
  -2.8399606e-03
  -2.4016278e-02
  -4.0193147e-02
  -6.3705644e-03
   7.7451473e-02
   1.0127297e-01
   1.2509392e-01
   2.0891434e-01
   2.5773422e-01
   1.7155357e-01
   8.0372390e-02
   2.4190685e-02
   2.8008457e-02
  -1.1317429e-01
  -1.3435756e-01
  -1.4054134e-01
  -1.2172563e-01
  -1.7291044e-01
  -6.9095748e-02
   3.8471844e-01
   1.2735321e+00
   1.7173453e+00
   1.2615800e-01
  -6.8002980e-01
  -7.2621809e-01
  -4.3740687e-01
  -1.7359613e-01
  -1.4478587e-01
  -7.5976091e-02
  -1.0716679e-01
  -7.8357958e-02
  -1.0454960e-01
  -6.0741704e-02
  -5.6934275e-02
  -1.8127307e-02
  -1.9320798e-02
   4.4852547e-03
   5.3290855e-02
   3.2096005e-02
   9.5900708e-02
   1.1470497e-01
   1.6350878e-01
   2.1231216e-01
   2.3611510e-01
   2.8991761e-01
   2.9871969e-01
   2.9252134e-01
   3.0132257e-01
   3.2512337e-01
   3.0392376e-01
   2.2272373e-01
   2.0652329e-01
   1.3032243e-01
   8.9121174e-02
   6.2919510e-02
  -1.8282557e-02
   5.5149781e-03
  -3.0687883e-02
  -1.6891137e-02
  -3.3094781e-02
  -4.4298813e-02
  -4.0503229e-02
  -2.6708027e-02
  -2.7913203e-02
  -3.4118755e-02
  -2.0324680e-02
  -2.6530975e-02
  -3.2737637e-02
  -3.3944664e-02
  -5.5152051e-02
  -8.1359798e-02
  -6.2567900e-02
  -6.8776355e-02
  -8.4985159e-02
  -7.6194311e-02
  -9.2403806e-02
  -8.8613643e-02
  -1.1982382e-01
  -9.6034329e-02
  -9.7245172e-02
  -8.8456344e-02
  -5.4667844e-02
   1.4120333e-02
   1.7908189e-02
   5.6695727e-02
   1.5548295e-01
   1.3426986e-01
   2.8056462e-02
  -3.3157243e-02
  -4.4371251e-02
  -1.3558556e-01
  -2.2680017e-01
  -2.2301507e-01
  -2.0423026e-01
  -2.2044574e-01
  -2.8166151e-01
  -2.2877563e-02
   7.2590611e-01
   1.4596895e+00
   1.1084726e+00
  -2.9774454e-01
  -8.7896196e-01
  -6.7517965e-01
  -3.8139760e-01
  -2.0261581e-01
  -2.0383428e-01
  -1.8505300e-01
  -1.8127198e-01
  -1.8249120e-01
  -1.6871066e-01
  -1.5493037e-01
  -1.1115032e-01
  -1.2237050e-01
  -9.3590917e-02
  -5.9811564e-02
  -4.1032438e-02
  -3.2253538e-02
   2.1525142e-02
   5.0303602e-02
   7.4081847e-02
   1.6285988e-01
   1.8163770e-01
   2.1541532e-01
   2.3419273e-01
   2.3796994e-01
   2.4674695e-01
   2.2052377e-01
   1.8430039e-01
   1.2307682e-01
   8.1853074e-02
   1.0629139e-02
  -5.5594976e-02
  -7.1819268e-02
  -9.3043735e-02
  -1.2926837e-01
  -1.3549318e-01
  -1.3671815e-01
  -1.4294329e-01
  -1.4916859e-01
  -1.3039404e-01
  -1.3161964e-01
  -1.3284540e-01
  -1.2907131e-01
  -1.3029736e-01
  -1.3152355e-01
  -1.3774988e-01
  -1.4897635e-01
  -1.6020295e-01
  -1.6142968e-01
  -1.6265654e-01
  -1.9388352e-01
  -1.8511062e-01
  -1.9633784e-01
  -1.8256518e-01
  -1.9879263e-01
  -2.1502019e-01
  -2.2624786e-01
  -1.7747563e-01
  -1.5370350e-01
  -8.9931465e-02
  -8.1159528e-02
  -5.2387682e-02
   4.6384075e-02
   3.5155747e-02
  -7.1072665e-02
  -1.3230116e-01
  -1.6852972e-01
  -2.2475837e-01
  -3.3098708e-01
  -3.2721586e-01
  -3.3344471e-01
  -3.2467361e-01
  -3.6590258e-01
  -1.6213160e-01
   5.0163932e-01
   1.3504102e+00
   1.3591810e+00
  -3.0204820e-01
  -1.0032775e+00
  -7.3450675e-01
  -4.5573609e-01
  -2.9196545e-01
  -2.9819484e-01
  -2.8442426e-01
  -2.7565371e-01
  -2.6688317e-01
  -2.8311265e-01
  -2.5934215e-01
  -2.4557166e-01
  -1.9180117e-01
  -2.0303069e-01
  -1.7426022e-01
  -1.6048974e-01
  -1.1671926e-01
  -9.7948773e-02
  -4.9178277e-02
  -2.0407768e-02
   3.8362755e-02
   8.2133297e-02
   1.1090386e-01
   1.3967445e-01
   1.5344506e-01
   1.5221571e-01
   1.4098639e-01
   8.4757102e-02
   4.8527856e-02
  -1.2701348e-02
  -6.3930507e-02
  -1.2015962e-01
  -1.5138868e-01
  -1.8261768e-01
  -1.9884663e-01
  -2.1007552e-01
  -2.0130434e-01
  -2.0753310e-01
  -2.0876179e-01
  -2.0499041e-01
  -2.0621896e-01
  -2.1244742e-01
  -2.1367581e-01
  -2.1990411e-01
  -2.1113232e-01
  -2.3736044e-01
  -2.2858848e-01
  -2.3981641e-01
  -2.4604425e-01
  -2.5727198e-01
  -2.5849961e-01
  -2.7472713e-01
  -2.5595455e-01
  -2.7218184e-01
  -2.8840902e-01
  -2.9963609e-01
  -2.9086302e-01
  -3.1208984e-01
  -2.8831652e-01
  -3.0454307e-01
  -2.9576949e-01
  -2.6199577e-01
  -1.9822191e-01
  -1.6444791e-01
  -1.6067376e-01
  -7.1899463e-02
  -5.3125011e-02
  -1.1935040e-01
  -1.7557564e-01
  -2.5180071e-01
  -2.6302562e-01
  -3.9425036e-01
  -4.0547494e-01
  -4.1669933e-01
  -4.1292356e-01
  -4.3414760e-01
  -4.4537146e-01
  -5.6595134e-02
   8.7718138e-01
   1.5359581e+00
   2.0473498e-01
  -7.9148792e-01
  -8.8771063e-01
  -6.3893313e-01
  -3.9515543e-01
  -3.9637752e-01
  -3.7759939e-01
  -3.8882105e-01
  -3.7004249e-01
  -3.8126371e-01
  -3.4748471e-01
  -3.5370548e-01
  -3.1492602e-01
  -3.1114633e-01
  -2.7736641e-01
  -2.7358624e-01
  -2.3480583e-01
  -2.1102518e-01
  -1.7224428e-01
  -1.4846313e-01
  -8.9681729e-02
  -6.0900070e-02
  -1.7118150e-02
  -3.3359690e-03
   2.0446478e-02
   2.9229193e-02
   3.3012179e-02
   1.1795440e-02
  -1.4421023e-02
  -7.0637205e-02
  -1.2685310e-01
  -1.8306872e-01
  -2.2428404e-01
  -2.5549907e-01
  -2.7671381e-01
  -2.8792825e-01
  -2.8914239e-01
  -2.9535622e-01
  -2.9156975e-01
  -2.9278297e-01
  -2.9899588e-01
  -2.9020847e-01
  -3.0142074e-01
  -3.0263269e-01
  -2.9884431e-01
  -3.1005561e-01
  -3.2626658e-01
  -3.3247721e-01
  -3.5368751e-01
  -3.4989747e-01
  -3.5610709e-01
  -3.5731636e-01
  -3.6852529e-01
  -3.6973386e-01
  -3.8594208e-01
  -3.8214994e-01
  -3.8835744e-01
  -3.8456458e-01
  -3.9077136e-01
  -3.8697776e-01
  -3.9318380e-01
  -3.8938946e-01
  -3.6559474e-01
  -2.9679964e-01
  -2.5300416e-01
  -2.8920829e-01
  -1.8041204e-01
  -1.6161539e-01
  -1.9781835e-01
  -2.9402090e-01
  -3.6022306e-01
  -3.7142482e-01
  -4.8262616e-01
  -5.1882710e-01
  -5.2002763e-01
  -5.0622774e-01
  -5.1242743e-01
  -5.5362670e-01
  -2.4982554e-01
   5.7897604e-01
   1.2677780e+00
   3.8658049e-01
  -7.8461663e-01
  -1.0008133e+00
  -7.2700955e-01
  -5.0820534e-01
  -5.0440069e-01
  -4.9559559e-01
  -4.9179003e-01
  -4.7298402e-01
  -4.6417755e-01
  -4.5537062e-01
  -4.4656322e-01
  -4.2275535e-01
  -3.9894701e-01
  -3.7513820e-01
  -3.5632891e-01
  -3.3751915e-01
  -3.0870890e-01
  -2.8489816e-01
  -2.5108694e-01
  -2.0227523e-01
  -1.5846302e-01
  -1.2965032e-01
  -1.0083711e-01
  -7.2023406e-02
  -8.3209194e-02
  -7.4394473e-02
  -7.5579242e-02
  -1.0676350e-01
  -1.5794723e-01
  -2.0913045e-01
  -2.5531315e-01
  -2.9649531e-01
  -3.3767695e-01
  -3.5885806e-01
  -3.6003864e-01
  -3.6621868e-01
  -3.6739817e-01
  -3.7857713e-01
  -3.7475554e-01
  -3.7093340e-01
  -3.8211071e-01
  -3.8828746e-01
  -3.8446366e-01
  -4.0063930e-01
  -3.9681437e-01
  -3.9298888e-01
  -4.2416282e-01
  -4.2533619e-01
  -4.2650898e-01
  -4.3768120e-01
  -4.4385284e-01
  -4.3502389e-01
  -4.5119436e-01
  -4.5736424e-01
  -4.7353353e-01
  -4.5970222e-01
  -4.7587032e-01
  -4.7203782e-01
  -4.7320471e-01
  -4.7937100e-01
  -4.8553668e-01
  -4.7670175e-01
  -4.9786621e-01
  -4.7403005e-01
  -4.5019326e-01
  -4.0635586e-01
  -3.6251783e-01
  -3.4867917e-01
  -2.6483988e-01
  -2.3599996e-01
  -3.0215940e-01
  -3.5331820e-01
  -4.3447636e-01
  -4.4063388e-01
  -5.7679074e-01
  -5.9294696e-01
  -5.9910252e-01
  -6.0025742e-01
  -6.0641167e-01
  -6.1756525e-01
  -2.8371817e-01
   4.5512958e-01
   1.0389780e+00
   3.7827087e-02
  -8.9332315e-01
  -1.1344727e+00
  -9.5062157e-01
  -6.5176976e-01
  -5.9791726e-01
  -5.8906407e-01
  -5.8021019e-01
  -5.8135561e-01
  -5.6750033e-01
  -5.6364436e-01
  -5.4978768e-01
  -5.0593029e-01
  -5.1207219e-01
  -4.8821338e-01
  -4.6935386e-01
  -4.2549362e-01
  -4.1163266e-01
  -3.8777097e-01
  -3.4890856e-01
  -3.0004542e-01
  -2.8118155e-01
  -2.4231695e-01
  -2.2345161e-01
  -2.0958553e-01
  -1.7071870e-01
  -1.7685113e-01
  -1.8298282e-01
  -2.0911375e-01
  -2.7024393e-01
  -2.8637335e-01
  -3.5750201e-01
  -3.9862992e-01
  -4.2975706e-01
  -4.4088343e-01
  -4.6700903e-01
  -4.7813386e-01
  -4.6925791e-01
  -4.7538119e-01
  -4.6150368e-01
  -4.8762539e-01
  -4.6374632e-01
  -4.7486645e-01
  -4.9098580e-01
  -4.8210435e-01
  -4.9322210e-01
  -4.7433906e-01
  -5.1045521e-01
  -5.3157056e-01
  -5.3768510e-01
  -5.4379882e-01
  -5.2491174e-01
  -5.4102384e-01
  -5.5713512e-01
  -5.3824558e-01
  -5.7435522e-01
  -5.3546403e-01
  -5.8157201e-01
  -5.5767915e-01
  -5.7378547e-01
  -5.7489094e-01
  -5.8099558e-01
  -5.7209937e-01
  -5.9320232e-01
  -5.6930442e-01
  -5.5540567e-01
  -4.9150607e-01
  -4.6260561e-01
  -4.3370429e-01
  -3.4980211e-01
  -3.3589907e-01
  -4.0199516e-01
  -4.7309038e-01
  -5.2918473e-01
  -5.7027821e-01
  -6.6137081e-01
  -6.9246253e-01
  -7.0855336e-01
  -7.0464331e-01
  -7.2573238e-01
  -6.7182055e-01
  -2.8290783e-01
   5.5100578e-01
   1.0399203e+00
  -3.1616429e-01
  -1.1572480e+00
  -1.2733307e+00
  -1.0444126e+00
  -7.4549357e-01
  -7.0657362e-01
  -6.4765275e-01
  -6.7373095e-01
  -6.4980824e-01
  -6.5588460e-01
  -6.3696004e-01
  -6.1303455e-01
  -5.9910812e-01
  -5.8518076e-01
  -5.5625246e-01
  -5.3232323e-01
  -5.2339305e-01
  -5.0446192e-01
  -4.6552985e-01
  -4.2659683e-01
  -3.8766286e-01
  -3.6872793e-01
  -3.1979205e-01
  -3.0585520e-01
  -3.0191739e-01
  -2.6797862e-01
  -2.9403887e-01
  -2.9509816e-01
  -3.1115648e-01
  -3.7221382e-01
  -4.1827018e-01
  -4.5432556e-01
  -5.0037996e-01
  -5.4143337e-01
  -5.4248579e-01
  -5.6853723e-01
  -5.5458767e-01
  -5.7063711e-01
  -5.9668556e-01
  -5.5773301e-01
  -5.7377945e-01
  -5.7982489e-01
  -5.6086931e-01
  -5.9191273e-01
  -5.9295514e-01
  -5.9399653e-01
  -5.8003690e-01
  -6.2107625e-01
  -6.1211457e-01
  -6.3315188e-01
  -6.2418815e-01
  -6.4522339e-01
  -6.4125760e-01
  -6.3229077e-01
  -6.4832291e-01
  -6.6435401e-01
  -6.5538406e-01
  -6.5641307e-01
  -6.6744102e-01
  -6.7846793e-01
  -6.6949379e-01
  -6.6051859e-01
  -6.4154233e-01
  -6.1756501e-01
  -5.7358663e-01
  -5.3960719e-01
  -5.1562668e-01
  -3.9164509e-01
  -4.1766244e-01
  -5.1367871e-01
  -5.4969390e-01
  -6.2070802e-01
  -6.9172105e-01
  -7.6273300e-01
  -7.7874386e-01
  -7.8975363e-01
  -7.7076231e-01
  -8.2676989e-01
  -6.3777638e-01
  -8.7817725e-03
   7.4021394e-01
   6.9921075e-01
  -7.4179133e-01
  -1.4327923e+00
  -1.2987922e+00
  -9.8979090e-01
  -7.8578853e-01
  -7.7178505e-01
  -7.5278044e-01
  -7.8377471e-01
  -7.2476786e-01
  -7.4575988e-01
  -7.2175076e-01
  -6.9274052e-01
  -6.7872914e-01
  -6.5471663e-01
  -6.4070297e-01
  -6.1668818e-01
  -5.8267224e-01
  -5.7865515e-01
  -5.0463692e-01
  -4.9561753e-01
  -4.4659700e-01
  -4.1257530e-01
  -3.7855245e-01
  -3.5452844e-01
  -3.5050327e-01
  -3.5147693e-01
  -3.3244943e-01
  -3.7842075e-01
  -4.1939090e-01
  -4.6035989e-01
  -5.1132769e-01
  -5.5229431e-01
  -6.0825976e-01
  -6.3422402e-01
  -6.4018710e-01
  -6.5114899e-01
  -6.6710969e-01
  -6.5806919e-01
  -6.4902751e-01
  -6.5998462e-01
  -6.5594054e-01
  -6.5189526e-01
  -6.6284877e-01
  -6.6880108e-01
  -6.6475217e-01
  -6.7570206e-01
  -6.8665074e-01
  -7.0259820e-01
  -6.9354445e-01
  -7.0448947e-01
  -7.0543328e-01
  -7.2637586e-01
  -7.2231722e-01
  -7.4825734e-01
  -7.2919624e-01
  -7.4013391e-01
  -7.3107034e-01
  -7.6200553e-01
  -7.4793948e-01
  -7.6387220e-01
  -7.3980367e-01
  -7.7573389e-01
  -7.5666287e-01
  -7.1759060e-01
  -6.5351707e-01
  -6.3444230e-01
  -6.0036626e-01
  -4.9128897e-01
  -5.1721041e-01
  -6.0813059e-01
  -6.5904951e-01
  -7.0496716e-01
  -7.5588354e-01
  -8.5679865e-01
  -8.6771249e-01
  -8.8862505e-01
  -8.5953633e-01
  -8.9544633e-01
  -7.6135505e-01
  -2.1226249e-01
   6.7683136e-01
   9.3592650e-01
  -7.4497707e-01
  -1.5158793e+00
  -1.3067803e+00
  -1.0376800e+00
  -8.3357841e-01
  -8.4447549e-01
  -8.2537127e-01
  -8.3626575e-01
  -8.1215892e-01
  -8.0805078e-01
  -7.8394133e-01
  -7.7983057e-01
  -7.5071849e-01
  -7.3660509e-01
  -7.1249037e-01
  -6.9837434e-01
  -6.6425697e-01
  -6.3013828e-01
  -6.0101827e-01
  -5.8189692e-01
  -5.1277424e-01
  -4.9365023e-01
  -4.5452488e-01
  -4.3539819e-01
  -4.3627017e-01
  -4.2214080e-01
  -4.2301008e-01
  -4.4387802e-01
  -4.7474461e-01
  -5.1560986e-01
  -5.7647375e-01
  -6.3233628e-01
  -6.6319746e-01
  -6.8405728e-01
  -6.9991574e-01
  -7.1577284e-01
  -7.1162858e-01
  -7.2248295e-01
  -7.0833595e-01
  -7.0918758e-01
  -7.1003784e-01
  -7.0588672e-01
  -7.0673423e-01
  -7.1258036e-01
  -7.2842511e-01
  -7.2926848e-01
  -7.2511047e-01
  -7.4095107e-01
  -7.5679028e-01
  -7.6262811e-01
  -7.7846454e-01
  -7.8929958e-01
  -7.8013322e-01
  -7.8596547e-01
  -8.0179632e-01
  -7.9762576e-01
  -7.9845381e-01
  -8.0428045e-01
  -7.9510568e-01
  -8.0092951e-01
  -8.1675192e-01
  -8.1257292e-01
  -8.0839251e-01
  -7.9921068e-01
  -8.2002743e-01
  -8.2084277e-01
  -8.2165668e-01
  -8.2246917e-01
  -8.2828024e-01
  -8.3908987e-01
  -8.0989808e-01
  -7.5570486e-01
  -7.0651020e-01
  -7.1231411e-01
  -6.3811659e-01
  -5.7891762e-01
  -6.2471722e-01
  -7.2051537e-01
  -7.6131208e-01
  -7.7210735e-01
  -8.8790117e-01
  -9.2869354e-01
  -9.3448446e-01
  -9.3527392e-01
  -9.4106194e-01
  -9.7684849e-01
  -6.7763359e-01
   1.2658277e-01
   8.3080059e-01
   5.5019879e-02
  -1.1407594e+00
  -1.4865372e+00
  -1.2273135e+00
  -9.6808831e-01
  -9.2386168e-01
  -9.1463358e-01
  -8.9540400e-01
  -8.8617295e-01
  -8.9194042e-01
  -8.7270640e-01
  -8.6347091e-01
  -8.3423393e-01
  -8.1999546e-01
  -8.0575551e-01
  -7.8651407e-01
  -7.5727114e-01
  -7.3802671e-01
  -7.0378079e-01
  -6.7953338e-01
  -6.4528447e-01
  -6.0103406e-01
  -5.7178214e-01
  -5.4752873e-01
  -5.2327381e-01
  -5.1901738e-01
  -5.1475945e-01
  -5.1550001e-01
  -5.3123906e-01
  -5.6197659e-01
  -6.0271261e-01
  -6.4344712e-01
  -6.8918011e-01
  -7.2491158e-01
  -7.4064153e-01
  -7.5636995e-01
  -7.6209685e-01
  -7.6282223e-01
  -7.6854608e-01
  -7.6426840e-01
  -7.6998919e-01
  -7.6570845e-01
  -7.7642618e-01
  -7.7714237e-01
  -7.8285703e-01
  -7.9357014e-01
  -7.9428172e-01
  -7.9999176e-01
  -8.1070025e-01
  -8.2140720e-01
  -8.2211260e-01
  -8.3281646e-01
  -8.3351876e-01
  -8.3921952e-01
  -8.3991872e-01
  -8.5061637e-01
  -8.5131247e-01
  -8.4700700e-01
  -8.4769999e-01
  -8.4839141e-01
  -8.5908127e-01
  -8.6476956e-01
  -8.5545630e-01
  -8.6114146e-01
  -8.5682506e-01
  -8.6250709e-01
  -8.6318755e-01
  -8.7386644e-01
  -8.6954376e-01
  -8.7521950e-01
  -8.6589367e-01
  -8.7656626e-01
  -8.7223727e-01
  -8.8290670e-01
  -8.7357455e-01
  -8.8924081e-01
  -8.7490549e-01
  -8.9056859e-01
  -8.7623009e-01
  -8.9189001e-01
  -8.7754834e-01
  -8.5820507e-01
  -8.0386022e-01
  -7.6951376e-01
  -7.7016572e-01
  -6.8081607e-01
  -6.5146483e-01
  -7.1211198e-01
  -7.9275754e-01
  -8.3840149e-01
  -8.3904384e-01
  -9.6468458e-01
  -9.8032372e-01
  -9.9596124e-01
  -9.8659716e-01
  -1.0072315e+00
  -9.9786416e-01
  -6.2349524e-01
   2.9087530e-01
   8.7024745e-01
  -6.2037878e-01
  -1.4660034e+00
  -1.4366264e+00
  -1.2022478e+00
  -9.6286751e-01
  -9.7348563e-01
  -9.5410213e-01
  -9.6471700e-01
  -9.4533024e-01
  -9.5594185e-01
  -9.3655184e-01
  -9.3216019e-01
  -8.8776690e-01
  -8.7837199e-01
  -8.5397543e-01
  -8.4457724e-01
  -8.1017742e-01
  -7.8577595e-01
  -7.4637284e-01
  -7.3196809e-01
  -6.9756170e-01
  -6.7815366e-01
  -6.3874398e-01
  -6.1933265e-01
  -6.1491967e-01
  -6.1050504e-01
  -5.9608876e-01
  -6.0167083e-01
  -6.0725125e-01
  -6.3783001e-01
  -6.6340712e-01
  -7.0398257e-01
  -7.4455637e-01
  -7.8012850e-01
  -7.9569898e-01
  -8.1626779e-01
  -8.2683495e-01
  -8.2740044e-01
  -8.3296426e-01
  -8.2352642e-01
  -8.2908691e-01
  -8.2964573e-01
  -8.4020289e-01
  -8.4075837e-01
  -8.4131219e-01
  -8.4186433e-01
  -8.5741480e-01
  -8.6296359e-01
  -8.7351071e-01
  -8.7905615e-01
  -8.8959991e-01
  -8.9014199e-01
  -9.0068239e-01
  -8.8622112e-01
  -9.0175815e-01
  -8.9729351e-01
  -9.0282718e-01
  -8.8835917e-01
  -9.1388947e-01
  -9.0941808e-01
  -9.0994501e-01
  -9.0047024e-01
  -9.2099378e-01
  -9.1651564e-01
  -9.2203580e-01
  -9.0755426e-01
  -9.3307103e-01
  -9.1858611e-01
  -9.3909949e-01
  -9.1461117e-01
  -9.4012115e-01
  -9.3062943e-01
  -9.5113601e-01
  -9.2164089e-01
  -9.0214407e-01
  -8.5264554e-01
  -8.0814531e-01
  -7.9364338e-01
  -6.9413973e-01
  -6.8963438e-01
  -7.6512732e-01
  -8.3561856e-01
  -9.0110808e-01
  -8.9659589e-01
  -1.0320820e+00
  -1.0325664e+00
  -1.0630490e+00
  -1.0335300e+00
  -1.0590092e+00
  -9.9948676e-01
  -5.9996257e-01
   1.9956334e-01
   6.8909097e-01
  -7.9637967e-01
  -1.5618486e+00
  -1.5223158e+00
  -1.2827813e+00
  -1.0382450e+00
  -1.0287071e+00
  -1.0141674e+00
  -1.0146260e+00
  -9.9508283e-01
  -1.0105380e+00
  -9.7099136e-01
  -9.8144302e-01
  -9.5189296e-01
  -9.3734117e-01
  -8.9278765e-01
  -8.8823239e-01
  -8.5867540e-01
  -8.4911667e-01
  -8.0955621e-01
  -7.6999401e-01
  -7.5043008e-01
  -7.1586441e-01
  -6.9629700e-01
  -6.7672785e-01
  -6.4715696e-01
  -6.7258433e-01
  -6.4800996e-01
  -6.6343385e-01
  -6.7385599e-01
  -7.1427639e-01
  -7.2969505e-01
  -7.9011196e-01
  -8.2052712e-01
  -8.5094054e-01
  -8.6635221e-01
  -8.6676214e-01
  -8.8217031e-01
  -8.8257674e-01
  -8.8298141e-01
  -8.9338433e-01
  -8.7878551e-01
  -8.8918493e-01
  -8.8458260e-01
  -9.0997851e-01
  -9.1037267e-01
  -9.1576508e-01
  -9.2615573e-01
  -9.2654462e-01
  -9.3193176e-01
  -9.4231714e-01
  -9.4270076e-01
  -9.4808262e-01
  -9.4346272e-01
  -9.5384107e-01
  -9.5921765e-01
  -9.5959247e-01
  -9.6996553e-01
  -9.7033683e-01
  -9.6570637e-01
  -9.7107414e-01
  -9.7644015e-01
  -9.8680439e-01
  -9.7216687e-01
  -9.7752758e-01
  -9.9288653e-01
  -9.7824371e-01
  -9.8359912e-01
  -9.9395276e-01
  -9.9430463e-01
  -9.9465474e-01
  -9.2000308e-01
  -8.8034964e-01
  -8.7569444e-01
  -8.1603746e-01
  -7.1137871e-01
  -7.7671819e-01
  -8.4205590e-01
  -9.1239183e-01
  -9.2272599e-01
  -1.0430584e+00
  -1.0683890e+00
  -1.0987178e+00
  -1.0940449e+00
  -1.0893702e+00
  -1.1346937e+00
  -8.4001541e-01
  -1.7033536e-01
   4.0434646e-01
  -1.7596993e-01
  -1.1362846e+00
  -1.6215974e+00
  -1.5169084e+00
  -1.2322177e+00
  -1.0825252e+00
  -1.0578309e+00
  -1.0631349e+00
  -1.0384370e+00
  -1.0437374e+00
  -1.0140360e+00
  -1.0043328e+00
  -9.8462783e-01
  -9.6992107e-01
  -9.4521252e-01
  -9.1550219e-01
  -8.9579008e-01
  -8.7607618e-01
  -8.5636050e-01
  -8.3164303e-01
  -7.8192377e-01
  -7.5720273e-01
  -7.3747990e-01
  -7.1275528e-01
  -6.9302887e-01
  -6.9330068e-01
  -6.7357070e-01
  -6.8883893e-01
  -6.8410538e-01
  -7.1937003e-01
  -7.6463289e-01
  -7.8489397e-01
  -8.2515325e-01
  -8.4541075e-01
  -9.0566645e-01
  -9.1592036e-01
  -9.1117249e-01
  -9.0142282e-01
  -9.0667136e-01
  -9.1691811e-01
  -9.4216306e-01
  -9.3740623e-01
  -9.2264760e-01
  -9.2788718e-01
  -9.2812496e-01
  -9.5836095e-01
  -9.5359515e-01
  -9.4382756e-01
  -9.5905817e-01
  -9.7928699e-01
  -9.8951402e-01
  -9.7473925e-01
  -9.7496268e-01
  -9.9518432e-01
  -9.9040417e-01
  -1.0006222e+00
  -9.8083848e-01
  -9.9605294e-01
  -1.0062656e+00
  -1.0014765e+00
  -9.8168555e-01
  -1.0068928e+00
  -1.0020983e+00
  -1.0173020e+00
  -1.0075039e+00
  -1.0077040e+00
  -1.0079023e+00
  -1.0130988e+00
  -9.4829348e-01
  -8.7848639e-01
  -8.8367750e-01
  -8.3386682e-01
  -7.1905433e-01
  -7.7424005e-01
  -8.6942398e-01
  -9.2960610e-01
  -9.4478643e-01
  -1.0499650e+00
  -1.0701417e+00
  -1.1203166e+00
  -1.1104898e+00
  -1.0906611e+00
  -1.1358307e+00
  -8.5599841e-01
  -9.1164357e-02
   5.1867149e-01
  -2.1649086e-01
  -1.2416514e+00
  -1.6968102e+00
  -1.5319671e+00
  -1.2471223e+00
  -1.1022757e+00
  -1.0674272e+00
  -1.0775770e+00
  -1.0527250e+00
  -1.0528712e+00
  -1.0430156e+00
  -1.0231581e+00
  -9.9829892e-01
  -9.9843791e-01
  -9.5857510e-01
  -9.5871050e-01
  -9.1884410e-01
  -8.9397590e-01
  -8.7410590e-01
  -8.5423411e-01
  -7.9936052e-01
  -7.7448514e-01
  -7.1960795e-01
  -7.2472898e-01
  -7.0984820e-01
  -6.8996563e-01
  -7.0008127e-01
  -6.9019511e-01
  -7.2030715e-01
  -7.3541740e-01
  -7.7552585e-01
  -8.3063251e-01
  -8.5073737e-01
  -8.9084044e-01
  -9.1094171e-01
  -9.2604119e-01
  -9.4113887e-01
  -9.3123476e-01
  -9.4132886e-01
  -9.4642116e-01
  -9.2651167e-01
  -9.4160039e-01
  -9.3668731e-01
  -9.4677244e-01
  -9.5185577e-01
  -9.6193732e-01
  -9.4701707e-01
  -9.6709503e-01
  -9.8217120e-01
  -9.8224557e-01
  -9.8231816e-01
  -9.8738895e-01
  -9.9745795e-01
  -9.9252517e-01
  -9.9759059e-01
  -9.9265422e-01
  -9.9271606e-01
  -1.0127761e+00
  -9.9283438e-01
  -1.0028909e+00
  -1.0229455e+00
  -1.0229984e+00
  -1.0180496e+00
  -1.0130989e+00
  -1.0281464e+00
  -1.0131922e+00
  -1.0032361e+00
  -9.5327830e-01
  -9.0831869e-01
  -8.9835729e-01
  -8.4339411e-01
  -7.3342914e-01
  -7.8346239e-01
  -8.8349386e-01
  -9.4352354e-01
  -9.6855144e-01
  -1.0635776e+00
  -1.1286019e+00
  -1.1486244e+00
  -1.1286452e+00
  -1.1336642e+00
  -1.1886814e+00
  -8.8869682e-01
  -1.5371046e-01
   5.1127767e-01
  -2.3732411e-02
  -1.2087407e+00
  -1.7187472e+00
  -1.5287520e+00
  -1.2437550e+00
  -1.0987562e+00
  -1.0937556e+00
  -1.0887532e+00
  -1.0687491e+00
  -1.0687432e+00
  -1.0637355e+00
  -1.0537260e+00
  -1.0187148e+00
  -1.0037018e+00
  -9.6868701e-01
  -9.5867045e-01
  -9.2365213e-01
  -9.0363203e-01
  -8.8861017e-01
  -8.4358653e-01
  -8.1356112e-01
  -7.7353395e-01
  -7.2850500e-01
  -7.0847429e-01
  -6.9844181e-01
  -6.8840756e-01
  -6.7837154e-01
  -6.6833376e-01
  -6.8329421e-01
  -7.2825290e-01
  -7.6820982e-01
  -8.1316498e-01
  -8.5811838e-01
  -8.8807001e-01
  -9.1801989e-01
  -9.2796800e-01
  -9.3291435e-01
  -9.3785894e-01
  -9.4280177e-01
  -9.2774284e-01
  -9.2768215e-01
  -9.3261970e-01
  -9.4255550e-01
  -9.3248954e-01
  -9.4242183e-01
  -9.5235236e-01
  -9.6228113e-01
  -9.6220815e-01
  -9.7213342e-01
  -9.7705694e-01
  -9.8697870e-01
  -9.8689871e-01
  -1.0018170e+00
  -9.8673349e-01
  -1.0066483e+00
  -9.9656127e-01
  -1.0014725e+00
  -1.0013821e+00
  -1.0212898e+00
  -1.0011959e+00
  -1.0161001e+00
  -1.0060027e+00
  -1.0209035e+00
  -1.0058025e+00
  -1.0206998e+00
  -1.0055954e+00
  -1.0254892e+00
  -1.0153813e+00
  -9.9027168e-01
  -9.2516029e-01
  -8.8504716e-01
  -8.7993230e-01
  -7.6481571e-01
  -7.7469737e-01
  -8.5457731e-01
  -9.0445551e-01
  -9.6433197e-01
  -9.8920671e-01
  -1.1140797e+00
  -1.1089510e+00
  -1.1238205e+00
  -1.1136883e+00
  -1.1435544e+00
  -1.0784188e+00
  -6.2828143e-01
   2.9685766e-01
   7.8699847e-01
  -8.5785899e-01
  -1.6527147e+00
  -1.5525687e+00
  -1.3174210e+00
  -1.0722716e+00
  -1.0921205e+00
  -1.0769676e+00
  -1.0868130e+00
  -1.0616567e+00
  -1.0614987e+00
  -1.0313390e+00
  -1.0261776e+00
  -9.9601442e-01
  -9.8584955e-01
  -9.5068298e-01
  -9.4051469e-01
  -9.1034470e-01
  -8.8517299e-01
  -8.4499958e-01
  -8.1982447e-01
  -7.7464764e-01
  -7.4946912e-01
  -7.1928889e-01
  -7.0910695e-01
  -6.9892332e-01
  -6.9873798e-01
  -6.8855095e-01
  -6.9836221e-01
  -7.1317178e-01
  -7.5297965e-01
  -7.8278583e-01
  -8.2259031e-01
  -8.6239310e-01
  -8.9219419e-01
  -9.0699359e-01
  -9.1179131e-01
  -9.1658733e-01
  -9.2138166e-01
  -9.1617431e-01
  -9.1096527e-01
  -9.1075454e-01
  -9.1554213e-01
  -9.1532804e-01
  -9.2011226e-01
  -9.2989481e-01
  -9.3467567e-01
  -9.4445485e-01
  -9.4423236e-01
  -9.5400818e-01
  -9.5878234e-01
  -9.6855481e-01
  -9.6832562e-01
  -9.7309475e-01
  -9.7286221e-01
  -9.7762800e-01
  -9.7739212e-01
  -9.8715457e-01
  -9.8191535e-01
  -9.9167447e-01
  -9.8643192e-01
  -9.9618771e-01
  -9.8594184e-01
  -9.9569431e-01
  -9.9044511e-01
  -1.0001943e+00
  -1.0049417e+00
  -1.0146876e+00
  -1.0044318e+00
  -1.0141743e+00
  -1.0089151e+00
  -9.7865436e-01
  -9.1339193e-01
  -8.7812784e-01
  -8.8786211e-01
  -7.9759473e-01
  -7.5732570e-01
  -8.0205503e-01
  -8.8678272e-01
  -9.4150876e-01
  -9.4623316e-01
  -1.0659559e+00
  -1.0956770e+00
  -1.1053965e+00
  -1.0901144e+00
  -1.0948306e+00
  -1.1295452e+00
  -8.1925813e-01
   1.1030558e-02
   6.5632087e-01
  -3.5338719e-01
  -1.4030936e+00
  -1.5977984e+00
  -1.3425016e+00
  -1.0822032e+00
  -1.0719031e+00
  -1.0616014e+00
  -1.0562981e+00
  -1.0359932e+00
  -1.0356866e+00
  -1.0203785e+00
  -1.0100687e+00
  -9.8475730e-01
  -9.6444430e-01
  -9.3912970e-01
  -9.1881348e-01
  -8.9349565e-01
  -8.7317622e-01
  -8.3785518e-01
  -8.1253254e-01
  -7.7720830e-01
  -7.4188245e-01
  -7.1655500e-01
  -7.0122596e-01
  -6.9089532e-01
  -7.0056309e-01
  -6.8522926e-01
  -6.8489383e-01
  -6.9455682e-01
  -7.1921821e-01
  -7.3887802e-01
  -7.8353624e-01
  -8.1819288e-01
  -8.4284793e-01
  -8.6750139e-01
  -8.8215328e-01
  -8.8180358e-01
  -8.9145231e-01
  -8.9109946e-01
  -8.8074503e-01
  -8.8538903e-01
  -8.9003146e-01
  -8.8967231e-01
  -8.9931159e-01
  -9.0894931e-01
  -9.0858546e-01
  -9.1322004e-01
  -9.0785306e-01
  -9.2248452e-01
  -9.2711441e-01
  -9.3174275e-01
  -9.4136952e-01
  -9.4599475e-01
  -9.4561841e-01
  -9.5024052e-01
  -9.4986108e-01
  -9.5948009e-01
  -9.4909755e-01
  -9.6371346e-01
  -9.5332783e-01
  -9.5794065e-01
  -9.4755193e-01
  -9.5716166e-01
  -9.6676986e-01
  -9.6637652e-01
  -9.5098164e-01
  -9.6558523e-01
  -9.6018728e-01
  -9.7478780e-01
  -9.4938679e-01
  -9.7398425e-01
  -9.5858018e-01
  -9.3317459e-01
  -8.7776747e-01
  -8.4735883e-01
  -8.2694867e-01
  -7.2653699e-01
  -7.1112379e-01
  -7.6070908e-01
  -8.4029285e-01
  -9.0487511e-01
  -9.1945585e-01
  -1.0390351e+00
  -1.0386128e+00
  -1.0581890e+00
  -1.0477638e+00
  -1.0723370e+00
  -1.0519087e+00
  -6.9647889e-01
   8.8952395e-02
   6.0938518e-01
  -6.3518054e-01
  -1.4197448e+00
  -1.5443075e+00
  -1.3238688e+00
  -1.0584285e+00
  -1.0379868e+00
  -1.0125436e+00
  -1.0320989e+00
  -9.9165269e-01
  -9.9620503e-01
  -9.6575589e-01
  -9.6530528e-01
  -9.4485319e-01
  -9.3939963e-01
  -9.0394460e-01
  -8.9348809e-01
  -8.5803012e-01
  -8.4757068e-01
  -8.0710978e-01
  -7.9164742e-01
  -7.5618359e-01
  -7.3571831e-01
  -7.0025156e-01
  -6.8478337e-01
  -6.6931371e-01
  -6.7884261e-01
  -6.5837005e-01
  -6.4789605e-01
  -6.6242060e-01
  -6.9194370e-01
  -7.0146536e-01
  -7.4598558e-01
  -7.7550436e-01
  -8.2002170e-01
  -8.1953761e-01
  -8.2905208e-01
  -8.3856511e-01
  -8.5307672e-01
  -8.5258690e-01
  -8.5209565e-01
  -8.4660297e-01
  -8.5110887e-01
  -8.5561335e-01
  -8.6011641e-01
  -8.6961805e-01
  -8.6411828e-01
  -8.8361709e-01
  -8.9311448e-01
  -8.9261047e-01
  -8.9210505e-01
  -8.8659822e-01
  -9.0608999e-01
  -9.2058035e-01
  -9.1006931e-01
  -9.0455687e-01
  -9.0904303e-01
  -9.1352780e-01
  -9.1301118e-01
  -9.2249316e-01
  -9.1197375e-01
  -9.1145295e-01
  -9.1593077e-01
  -9.3040720e-01
  -9.2988225e-01
  -9.1435592e-01
  -9.2882821e-01
  -9.1829912e-01
  -9.3776866e-01
  -9.2223683e-01
  -9.2670362e-01
  -9.1116905e-01
  -9.5063310e-01
  -9.2509580e-01
  -9.0455712e-01
  -8.5401709e-01
  -8.1847570e-01
  -8.0793295e-01
  -7.0238885e-01
  -6.6184339e-01
  -7.3629658e-01
  -8.1574842e-01
  -8.7019891e-01
  -8.8464806e-01
  -1.0140959e+00
  -1.0135423e+00
  -1.0329874e+00
  -1.0024312e+00
  -1.0468737e+00
  -9.9131479e-01
  -5.8075457e-01
   1.7980698e-01
   6.3036986e-01
  -6.4906594e-01
  -1.3835004e+00
  -1.5279336e+00
  -1.3223654e+00
  -1.0517959e+00
  -1.0062251e+00
  -9.7565300e-01
  -9.7507958e-01
  -9.5450484e-01
  -9.6392880e-01
  -9.2835145e-01
  -9.2277280e-01
  -8.9219285e-01
  -8.9161159e-01
  -8.5102904e-01
  -8.5044520e-01
  -8.1486006e-01
  -7.9927363e-01
  -7.5868591e-01
  -7.4309690e-01
  -7.0750661e-01
  -6.8691504e-01
  -6.5632219e-01
  -6.5072805e-01
  -6.2513264e-01
  -6.1453596e-01
  -5.9893800e-01
  -6.1333878e-01
  -6.3273828e-01
  -6.4713652e-01
  -6.7153349e-01
  -7.0592921e-01
  -7.4532366e-01
  -7.6971686e-01
  -7.8910880e-01
  -7.9349948e-01
  -8.0788892e-01
  -8.1227711e-01
  -8.0666405e-01
  -8.0104974e-01
  -8.0043419e-01
  -8.1481740e-01
  -8.1419938e-01
  -8.1858011e-01
  -8.3295962e-01
  -8.4233789e-01
  -8.4671493e-01
  -8.4109074e-01
  -8.5546533e-01
  -8.6483870e-01
  -8.7421084e-01
  -8.6358177e-01
  -8.6795148e-01
  -8.7231997e-01
  -8.7668725e-01
  -8.7605332e-01
  -8.8041819e-01
  -8.7478184e-01
  -8.7414430e-01
  -8.8350555e-01
  -8.8786561e-01
  -8.7722446e-01
  -8.8658212e-01
  -8.8093859e-01
  -8.9029387e-01
  -8.8464797e-01
  -8.8400087e-01
  -8.8335259e-01
  -8.9270313e-01
  -8.7705250e-01
  -8.3640068e-01
  -7.7074769e-01
  -7.6009353e-01
  -7.2443820e-01
  -6.0878170e-01
  -6.5812403e-01
  -7.3746520e-01
  -7.9680521e-01
  -8.1614406e-01
  -9.0548176e-01
  -9.7481829e-01
  -9.6915368e-01
  -9.7348792e-01
  -9.6782101e-01
  -1.0171530e+00
  -7.7148376e-01
  -1.2581342e-01
   5.2985806e-01
   2.2053067e-01
  -9.7379558e-01
  -1.5031207e+00
  -1.3274447e+00
  -1.0667676e+00
  -9.2608931e-01
  -9.2540992e-01
  -9.0472942e-01
  -9.0404781e-01
  -8.8836507e-01
  -8.7768122e-01
  -8.5699627e-01
  -8.4631020e-01
  -8.2062303e-01
  -8.0493475e-01
  -7.7924538e-01
  -7.5855490e-01
  -7.2786333e-01
  -7.0717066e-01
  -6.7147690e-01
  -6.4078205e-01
  -6.1008612e-01
  -5.7938910e-01
  -5.5369099e-01
  -5.4799181e-01
  -5.4229155e-01
  -5.3159021e-01
  -5.3088780e-01
  -5.4018432e-01
  -5.6447977e-01
  -5.9877415e-01
  -6.4306748e-01
  -6.7735974e-01
  -7.0665094e-01
  -7.2594108e-01
  -7.4023017e-01
  -7.4451821e-01
  -7.4380520e-01
  -7.4809114e-01
  -7.4237604e-01
  -7.4665990e-01
  -7.4094271e-01
  -7.4022449e-01
  -7.3950524e-01
  -7.4878495e-01
  -7.5306363e-01
  -7.6234128e-01
  -7.6661791e-01
  -7.7089352e-01
  -7.7516810e-01
  -7.8444167e-01
  -7.8371422e-01
  -7.8798576e-01
  -7.9225629e-01
  -8.0152581e-01
  -7.9579433e-01
  -8.0506184e-01
  -7.9432835e-01
  -7.9859386e-01
  -7.9285837e-01
  -8.0712190e-01
  -7.9638443e-01
  -8.0564597e-01
  -7.9990653e-01
  -8.0916610e-01
  -7.9842469e-01
  -8.0768231e-01
  -8.0193894e-01
  -8.0619460e-01
  -7.9544930e-01
  -8.1470302e-01
  -7.9895578e-01
  -8.1320757e-01
  -7.9745840e-01
  -8.1170827e-01
  -8.0095719e-01
  -8.2020515e-01
  -7.9945216e-01
  -7.8369822e-01
  -7.2294333e-01
  -6.8718751e-01
  -6.8143074e-01
  -6.0067303e-01
  -5.5991438e-01
  -6.1415480e-01
  -6.8839429e-01
  -7.4263285e-01
  -7.3687048e-01
  -8.7110719e-01
  -8.8534298e-01
  -8.9457785e-01
  -8.6881180e-01
  -9.0304484e-01
  -8.9227697e-01
  -5.2150819e-01
   3.8426150e-01
   9.4003209e-01
  -5.0919642e-01
  -1.3384240e+00
  -1.3226507e+00
  -1.0868766e+00
  -8.4610150e-01
  -8.5532554e-01
  -8.3454869e-01
  -8.4377096e-01
  -8.2299236e-01
  -8.2721287e-01
  -7.9643251e-01
  -8.0565127e-01
  -7.6486916e-01
  -7.5908619e-01
  -7.1830235e-01
  -7.0251765e-01
  -6.7173209e-01
  -6.5594567e-01
  -6.2515839e-01
  -5.9937027e-01
  -5.5858129e-01
  -5.3279146e-01
  -4.9700080e-01
  -4.8620928e-01
  -4.7041693e-01
  -4.7462375e-01
  -4.6882972e-01
  -4.7303487e-01
  -4.7723919e-01
  -5.0644268e-01
  -5.3064534e-01
  -5.6484719e-01
  -5.9404821e-01
  -6.2324842e-01
  -6.4744782e-01
  -6.5664641e-01
  -6.6084418e-01
  -6.6004116e-01
  -6.5423732e-01
  -6.5843269e-01
  -6.5262726e-01
  -6.5182104e-01
  -6.5101402e-01
  -6.6020621e-01
  -6.6439762e-01
  -6.6358824e-01
  -6.6777807e-01
  -6.7696713e-01
  -6.8115541e-01
  -6.9034292e-01
  -6.8452966e-01
  -6.9371562e-01
  -6.9290082e-01
  -6.9708526e-01
  -6.9626893e-01
  -7.0045185e-01
  -6.9963401e-01
  -7.0881542e-01
  -7.0799608e-01
  -7.1217599e-01
  -7.0635516e-01
  -7.1053358e-01
  -7.0471126e-01
  -7.1388821e-01
  -7.1306442e-01
  -7.1223990e-01
  -7.1141465e-01
  -7.1558867e-01
  -7.0476197e-01
  -7.1893455e-01
  -7.0810641e-01
  -7.1727755e-01
  -7.0644798e-01
  -7.1561770e-01
  -7.0978672e-01
  -7.1895502e-01
  -7.0312263e-01
  -7.1728953e-01
  -7.0645574e-01
  -7.1562126e-01
  -7.1478608e-01
  -6.9895021e-01
  -6.4311366e-01
  -5.9727642e-01
  -5.9143850e-01
  -5.2559991e-01
  -4.4976064e-01
  -5.0892069e-01
  -5.9808008e-01
  -6.5223879e-01
  -6.4639685e-01
  -7.7055424e-01
  -8.0471097e-01
  -8.1386704e-01
  -8.0802246e-01
  -8.1217723e-01
  -8.2633135e-01
  -5.0048483e-01
   2.8036234e-01
   8.2121015e-01
  -2.9794141e-01
  -1.1470923e+00
  -1.2912426e+00
  -1.0703923e+00
  -8.0454130e-01
  -7.8368970e-01
  -7.6783749e-01
  -7.6698465e-01
  -7.4613120e-01
  -7.5527714e-01
  -7.2942247e-01
  -7.1856718e-01
  -6.8271130e-01
  -6.7185481e-01
  -6.4099772e-01
  -6.3514003e-01
  -5.9428175e-01
  -5.7842288e-01
  -5.4256342e-01
  -5.2670338e-01
  -4.9084275e-01
  -4.5498154e-01
  -4.2911975e-01
  -4.1325739e-01
  -4.0239445e-01
  -3.9653095e-01
  -3.8066688e-01
  -3.9480224e-01
  -3.8893705e-01
  -4.0307129e-01
  -4.3220498e-01
  -4.8133812e-01
  -5.1047071e-01
  -5.3460275e-01
  -5.5873424e-01
  -5.7286519e-01
  -5.7699561e-01
  -5.9612548e-01
  -5.7525483e-01
  -5.7438364e-01
  -5.8351192e-01
  -5.8763968e-01
  -5.8176692e-01
  -5.8089363e-01
  -5.8001983e-01
  -5.9914552e-01
  -6.0827069e-01
  -6.0739535e-01
  -6.1151951e-01
  -6.2564317e-01
  -6.1476632e-01
  -6.1888898e-01
  -6.3301114e-01
  -6.3213281e-01
  -6.2125399e-01
  -6.2537468e-01
  -6.1949489e-01
  -6.3361462e-01
  -6.2273387e-01
  -6.2685264e-01
  -6.2597094e-01
  -6.2008877e-01
  -6.3420613e-01
  -6.3832303e-01
  -6.2743947e-01
  -6.3655545e-01
  -6.3567097e-01
  -6.4478604e-01
  -6.2890066e-01
  -6.2801483e-01
  -6.2712856e-01
  -6.5624184e-01
  -6.1035469e-01
  -6.4446709e-01
  -6.2857907e-01
  -6.1769061e-01
  -5.7680172e-01
  -5.2591241e-01
  -5.0002268e-01
  -4.2913253e-01
  -3.3824196e-01
  -4.2235097e-01
  -5.0145957e-01
  -5.7556777e-01
  -5.6967556e-01
  -7.0378294e-01
  -7.1288993e-01
  -7.3699652e-01
  -7.0110271e-01
  -7.4020851e-01
  -7.0931392e-01
  -3.2341895e-01
   3.7747641e-01
   8.5837215e-01
  -2.1573174e-01
  -9.3983524e-01
  -1.2339384e+00
  -1.0780411e+00
  -7.7714355e-01
  -6.9124558e-01
  -6.5534726e-01
  -6.7944857e-01
  -6.3854953e-01
  -6.6765014e-01
  -6.2175040e-01
  -6.1085031e-01
  -5.7994988e-01
  -5.8404910e-01
  -5.3814799e-01
  -5.3224654e-01
  -4.9134475e-01
  -4.8044264e-01
  -4.7454020e-01
  -4.2363744e-01
  -3.8773435e-01
  -3.9183094e-01
  -3.3092722e-01
  -3.2502319e-01
  -3.0911884e-01
  -3.1321418e-01
  -3.0230923e-01
  -2.9140396e-01
  -2.9549840e-01
  -3.1959255e-01
  -3.5868640e-01
  -3.8777995e-01
  -4.2687322e-01
  -4.5096621e-01
  -4.6505891e-01
  -4.8415133e-01
  -5.0324348e-01
  -5.1233535e-01
  -5.0142695e-01
  -4.9551828e-01
  -5.0960935e-01
  -5.0870015e-01
  -5.0279069e-01
  -5.0188098e-01
  -5.1597101e-01
  -5.2006079e-01
  -5.0415032e-01
  -5.3823961e-01
  -5.3232865e-01
  -5.3141745e-01
  -5.4550602e-01
  -5.5959435e-01
  -5.5368244e-01
  -5.6277031e-01
  -5.6185795e-01
  -5.5594537e-01
  -5.5503257e-01
  -5.5911955e-01
  -5.6820632e-01
  -5.5729287e-01
  -5.4637922e-01
  -5.6546535e-01
  -5.7955129e-01
  -5.5863702e-01
  -5.6772256e-01
  -5.6180789e-01
  -5.7089304e-01
  -5.7497800e-01
  -5.0906277e-01
  -4.6314736e-01
  -4.4223176e-01
  -3.9631599e-01
  -2.5540004e-01
  -3.2948392e-01
  -4.0856763e-01
  -4.6765117e-01
  -5.0173455e-01
  -5.7581776e-01
  -6.4490082e-01
  -6.7898372e-01
  -6.4306647e-01
  -6.5214907e-01
  -7.0123152e-01
  -4.2031382e-01
   2.5560402e-01
   8.2652199e-01
   3.5244010e-01
  -6.5664165e-01
  -1.2107233e+00
  -1.1298048e+00
  -8.1388615e-01
  -6.3296740e-01
  -6.1204853e-01
  -6.1112954e-01
  -5.9521044e-01
  -5.8429123e-01
  -5.6337191e-01
  -5.6745249e-01
  -5.4653296e-01
  -5.1561333e-01
  -4.9969361e-01
  -4.9377379e-01
  -4.4285388e-01
  -4.2193388e-01
  -3.9101380e-01
  -3.5009364e-01
  -3.3417339e-01
  -2.8325307e-01
  -2.8233267e-01
  -2.4141220e-01
  -2.1049166e-01
  -2.1457106e-01
  -1.9365039e-01
  -2.1772966e-01
  -2.0680888e-01
  -2.5588803e-01
  -2.8496714e-01
  -3.2404620e-01
  -3.6312521e-01
  -3.9720418e-01
  -4.4128311e-01
  -4.3536200e-01
  -4.3944085e-01
  -4.5851967e-01
  -4.2759846e-01
  -4.3167723e-01
  -4.4575597e-01
  -4.6483469e-01
  -4.3891339e-01
  -4.5299208e-01
  -4.6707075e-01
  -4.5614941e-01
  -4.7022807e-01
  -4.7430672e-01
  -4.8838536e-01
  -4.8246401e-01
  -4.9654267e-01
  -4.9062133e-01
  -4.9970000e-01
  -5.0377868e-01
  -4.9785738e-01
  -5.0693609e-01
  -4.9101483e-01
  -5.0009358e-01
  -4.9417237e-01
  -5.0825118e-01
  -5.0733003e-01
  -5.1140891e-01
  -5.2048782e-01
  -4.9456678e-01
  -4.5364578e-01
  -3.9272482e-01
  -3.7680392e-01
  -3.4088306e-01
  -2.2496226e-01
  -2.4904151e-01
  -3.4812083e-01
  -4.1720020e-01
  -4.3127964e-01
  -5.1535915e-01
  -5.8443873e-01
  -5.8851839e-01
  -5.9759811e-01
  -5.8667792e-01
  -6.3575781e-01
  -3.5983778e-01
   3.3608216e-01
   9.8200201e-01
   5.8292176e-01
  -6.2115858e-01
  -1.1452390e+00
  -1.0043195e+00
  -7.1840019e-01
  -5.4248094e-01
  -5.3656179e-01
  -5.3064276e-01
  -5.1972384e-01
  -4.9880504e-01
  -5.0288636e-01
  -4.9196781e-01
  -4.5604938e-01
  -4.4513107e-01
  -4.2421290e-01
  -3.8829487e-01
  -3.6737696e-01
  -3.4145920e-01
  -3.1054158e-01
  -2.7962411e-01
  -2.2870678e-01
  -1.9778960e-01
  -1.6187258e-01
  -1.5095571e-01
  -1.1503900e-01
  -1.0912246e-01
  -1.0820607e-01
  -9.2289854e-02
  -1.1637381e-01
  -1.7045793e-01
  -2.0954223e-01
  -2.6362671e-01
  -3.1771136e-01
  -3.4679621e-01
  -3.6088123e-01
  -3.6996645e-01
  -3.7405185e-01
  -3.8813745e-01
  -3.9222325e-01
  -3.8630925e-01
  -3.8039544e-01
  -3.7448185e-01
  -3.6856846e-01
  -3.8765528e-01
  -3.8674231e-01
  -3.9582956e-01
  -3.9491703e-01
  -4.0900472e-01
  -4.0809263e-01
  -4.1718077e-01
  -4.0626914e-01
  -4.2535774e-01
  -4.3444658e-01
  -4.3353565e-01
  -4.2762496e-01
  -4.4171452e-01
  -4.3080432e-01
  -4.3489437e-01
  -4.2398467e-01
  -4.3807522e-01
  -4.4216603e-01
  -4.4625710e-01
  -4.3034842e-01
  -4.4444002e-01
  -4.1353188e-01
  -3.8262401e-01
  -3.2171641e-01
  -3.1080909e-01
  -2.7990204e-01
  -1.5899528e-01
  -2.0808880e-01
  -2.9718260e-01
  -3.2127669e-01
  -3.6537107e-01
  -4.1446575e-01
  -5.1856072e-01
  -5.1765600e-01
  -5.2675157e-01
  -5.0584745e-01
  -5.5494363e-01
  -3.9904012e-01
   1.6186307e-01
   1.0227659e+00
   1.2086685e+00
  -4.3042925e-01
  -1.1145273e+00
  -8.7862574e-01
  -6.2772447e-01
  -4.5182354e-01
  -4.7092294e-01
  -4.4502267e-01
  -4.4912275e-01
  -4.2822316e-01
  -4.3232392e-01
  -4.1142503e-01
  -4.0052648e-01
  -3.6962829e-01
  -3.4873045e-01
  -3.1783297e-01
  -3.0693585e-01
  -2.7103909e-01
  -2.5014269e-01
  -2.1424667e-01
  -1.8335101e-01
  -1.3245573e-01
  -1.0656082e-01
  -7.0666287e-02
  -4.9772137e-02
  -3.3878370e-02
  -3.2984989e-02
  -2.7091997e-02
  -6.1199395e-02
  -7.5307187e-02
  -1.1941538e-01
  -1.6852396e-01
  -2.0263295e-01
  -2.5674234e-01
  -2.8585214e-01
  -2.9496235e-01
  -2.9907297e-01
  -2.9818401e-01
  -3.0229546e-01
  -3.0140733e-01
  -2.9051962e-01
  -2.9463234e-01
  -2.8374549e-01
  -2.7285906e-01
  -2.8697307e-01
  -2.9608751e-01
  -3.0020239e-01
  -2.8431771e-01
  -2.9843347e-01
  -3.0254968e-01
  -3.3166634e-01
  -3.2578344e-01
  -3.0990100e-01
  -3.1901901e-01
  -3.1813749e-01
  -3.1725642e-01
  -3.0137582e-01
  -3.3049568e-01
  -3.2461601e-01
  -3.2373681e-01
  -3.3285808e-01
  -3.3697983e-01
  -3.1110206e-01
  -3.4022476e-01
  -3.3434796e-01
  -3.3847163e-01
  -3.1759580e-01
  -3.4672046e-01
  -3.3084561e-01
  -3.1997125e-01
  -2.5909740e-01
  -2.0322404e-01
  -2.2235119e-01
  -1.3647885e-01
  -5.5607009e-02
  -1.2473568e-01
  -2.2386487e-01
  -2.7799457e-01
  -2.7212480e-01
  -3.9625554e-01
  -4.2038681e-01
  -4.2451860e-01
  -4.1865092e-01
  -4.2778377e-01
  -4.5191716e-01
  -1.0105108e-01
   7.0981446e-01
   1.2956795e+00
   2.4654391e-01
  -6.9259217e-01
  -9.5672881e-01
  -7.5586600e-01
  -4.6500374e-01
  -3.8414204e-01
  -3.8828090e-01
  -3.6242031e-01
  -3.6156029e-01
  -3.6070084e-01
  -3.1984195e-01
  -3.2898363e-01
  -2.9812589e-01
  -2.8226872e-01
  -2.3641213e-01
  -2.3555612e-01
  -2.0970069e-01
  -1.8384585e-01
  -1.5299159e-01
  -1.3213792e-01
  -8.6284849e-02
  -5.0432369e-02
  -4.5804869e-03
   1.1270796e-02
   1.7121477e-02
   2.2971553e-02
   5.3821023e-02
   4.4669884e-02
   4.0518133e-02
  -3.6342319e-03
  -3.7787213e-02
  -8.6940813e-02
  -1.1609503e-01
  -1.5524988e-01
  -1.8940535e-01
  -1.8356145e-01
  -2.0271818e-01
  -1.9687554e-01
  -2.1103354e-01
  -2.1019217e-01
  -1.8435145e-01
  -2.0851137e-01
  -1.9767193e-01
  -1.9183314e-01
  -2.1599500e-01
  -2.0015752e-01
  -2.2932068e-01
  -2.2348451e-01
  -2.3264899e-01
  -2.3681413e-01
  -2.3597994e-01
  -2.4014641e-01
  -2.5931356e-01
  -2.4348137e-01
  -2.5264986e-01
  -2.5181902e-01
  -2.6098886e-01
  -2.7515938e-01
  -2.5933058e-01
  -2.4850246e-01
  -2.6267504e-01
  -2.8684830e-01
  -2.6102226e-01
  -2.7019690e-01
  -2.7437225e-01
  -2.6354829e-01
  -2.6772504e-01
  -2.8690249e-01
  -2.7108064e-01
  -2.5525950e-01
  -2.1943907e-01
  -1.4861935e-01
  -1.3780035e-01
  -1.0198207e-01
   2.3835501e-02
  -3.5347655e-02
  -1.0953153e-01
  -1.7371614e-01
  -1.8290147e-01
  -2.9208754e-01
  -3.4627433e-01
  -3.6046186e-01
  -3.4965013e-01
  -3.3883914e-01
  -3.8802889e-01
  -1.0221939e-01
   5.9358937e-01
   1.2193974e+00
   7.2520464e-01
  -3.9898885e-01
  -9.1818310e-01
  -7.6237810e-01
  -4.8657387e-01
  -3.3077039e-01
  -3.0496768e-01
  -2.9916574e-01
  -2.9336457e-01
  -2.7756416e-01
  -2.5676453e-01
  -2.5096568e-01
  -2.3016760e-01
  -2.1437030e-01
  -1.9357378e-01
  -1.7277805e-01
  -1.4198310e-01
  -1.2118894e-01
  -9.0395576e-02
  -6.4603000e-02
  -1.3811219e-02
   1.1979765e-02
   3.7769950e-02
   6.8559333e-02
   7.9347913e-02
   9.5135688e-02
   1.1592265e-01
   9.1708811e-02
   8.2494156e-02
   7.8278687e-02
   1.4062401e-02
  -2.5154703e-02
  -7.9372628e-02
  -9.8591376e-02
  -1.0781095e-01
  -1.2703135e-01
  -1.3625258e-01
  -1.2547464e-01
  -1.2969753e-01
  -1.4392126e-01
  -1.3314582e-01
  -1.2737123e-01
  -1.2659748e-01
  -1.4082457e-01
  -1.3005251e-01
  -1.1928129e-01
  -1.3851093e-01
  -1.4274142e-01
  -1.5697276e-01
  -1.6620496e-01
  -1.6043802e-01
  -1.5967193e-01
  -1.6890672e-01
  -1.7314236e-01
  -1.7737887e-01
  -1.8161625e-01
  -1.7585451e-01
  -1.9009363e-01
  -1.7433363e-01
  -1.9357451e-01
  -1.8781626e-01
  -1.9705890e-01
  -1.8130242e-01
  -2.1054682e-01
  -1.9479212e-01
  -1.9903830e-01
  -1.9828537e-01
  -2.0753334e-01
  -1.8678220e-01
  -1.7603196e-01
  -1.0528261e-01
  -6.9534173e-02
  -7.3786636e-02
   2.1959997e-02
   5.7705722e-02
   3.4505372e-03
  -7.0805558e-02
  -1.3506257e-01
  -1.4432049e-01
  -2.5357933e-01
  -2.7783909e-01
  -2.9209977e-01
  -2.6136138e-01
  -3.0562391e-01
  -3.1988737e-01
   7.0848249e-02
   9.6158293e-01
   1.5773167e+00
   2.5804950e-01
  -6.4621862e-01
  -7.6548768e-01
  -5.3975768e-01
  -2.7402863e-01
  -2.5830051e-01
  -2.2257335e-01
  -2.3184713e-01
  -2.0112186e-01
  -2.1539755e-01
  -1.8467419e-01
  -1.8395178e-01
  -1.4823033e-01
  -1.3250984e-01
  -9.6790319e-02
  -9.6071756e-02
  -7.0354159e-02
  -4.4637530e-02
  -3.9218692e-03
   2.6792820e-02
   7.2506537e-02
   1.0821928e-01
   1.4393104e-01
   1.6964183e-01
   1.9035164e-01
   1.8606046e-01
   2.0176830e-01
   1.8747515e-01
   1.6818102e-01
   1.3388590e-01
   8.9589781e-02
   4.0292673e-02
   9.9456937e-04
  -3.3304531e-02
  -5.2604630e-02
  -6.6905730e-02
  -7.6207832e-02
  -8.0510938e-02
  -6.4815050e-02
  -6.9120170e-02
  -5.8426300e-02
  -5.7733440e-02
  -6.2041595e-02
  -6.1350764e-02
  -5.5660949e-02
  -6.9972154e-02
  -7.9284378e-02
  -6.8597625e-02
  -7.7911895e-02
  -9.2227191e-02
  -9.1543514e-02
  -1.0586087e-01
  -1.1017925e-01
  -1.0949867e-01
  -1.1381912e-01
  -1.1314060e-01
  -1.2246313e-01
  -1.2178669e-01
  -1.2611129e-01
  -1.1543694e-01
  -1.0976363e-01
  -1.0909137e-01
  -1.0342016e-01
  -1.2275000e-01
  -1.2208089e-01
  -1.3141283e-01
  -1.2074582e-01
  -1.2007988e-01
  -1.0941499e-01
  -1.2875116e-01
  -1.1808839e-01
  -1.4242669e-01
  -1.2176605e-01
  -1.0110648e-01
  -5.0447975e-02
   2.0945873e-04
   1.5865821e-02
   8.1521109e-02
   1.5217532e-01
   7.2828460e-02
  -1.5194814e-03
  -6.5868503e-02
  -5.5218605e-02
  -1.6956979e-01
  -2.1892206e-01
  -2.2827542e-01
  -1.9262986e-01
  -2.1698540e-01
  -2.4634202e-01
   1.1430026e-01
   9.6494145e-01
   1.5755815e+00
   4.1622053e-01
  -5.2314158e-01
  -7.0250478e-01
  -4.7186909e-01
  -2.1123450e-01
  -1.8560102e-01
  -1.6496865e-01
  -1.6933738e-01
  -1.3870723e-01
  -1.6307818e-01
  -1.1745025e-01
  -1.1182344e-01
  -1.0619774e-01
  -8.5573154e-02
  -5.4949691e-02
  -3.9327350e-02
   6.2938686e-03
  -3.0860366e-03
   4.2532933e-02
   6.8150775e-02
   1.2376749e-01
   1.5438307e-01
   1.8499752e-01
   2.0561084e-01
   2.3122303e-01
   2.5183408e-01
   2.5244399e-01
   2.4805276e-01
   2.2866039e-01
   1.9926688e-01
   1.5987223e-01
   1.0047643e-01
   6.6079481e-02
   3.1681388e-02
   2.2821460e-03
  -1.7118247e-02
  -2.1519792e-02
  -9.2249047e-04
  -2.0326344e-02
  -1.4731354e-02
  -1.9137522e-02
  -8.5448490e-03
   2.0466633e-03
  -3.2362987e-02
  -1.6773800e-02
  -6.1857783e-03
  -1.5598923e-02
  -3.5013235e-02
  -2.9428716e-02
  -3.3845368e-02
  -6.8263192e-02
  -4.7682189e-02
  -4.7102360e-02
  -6.6523708e-02
  -4.5946233e-02
  -6.0369936e-02
  -6.9794820e-02
  -6.9220885e-02
  -7.8648132e-02
  -8.3076564e-02
  -6.2506181e-02
  -7.1936985e-02
  -8.1368977e-02
  -7.0802159e-02
  -7.0236531e-02
  -6.9672095e-02
  -7.4108853e-02
  -6.8546805e-02
  -6.7985954e-02
  -7.2426299e-02
  -7.6867843e-02
  -5.1310587e-02
  -2.0754533e-02
   2.9800320e-02
   3.0353968e-02
   8.5906412e-02
   2.1145765e-01
   1.5700768e-01
   9.2556501e-02
   1.3104112e-02
  -6.3494881e-03
  -9.5804301e-02
  -1.5526033e-01
  -1.7471757e-01
  -1.6417603e-01
  -1.5863570e-01
  -2.0809660e-01
   5.7441291e-02
   7.0797796e-01
   1.3535134e+00
   9.6904762e-01
  -1.8541939e-01
  -7.2488762e-01
  -5.7935708e-01
  -2.9882776e-01
  -1.3329968e-01
  -1.2277283e-01
  -1.2724721e-01
  -1.0672282e-01
  -9.1199664e-02
  -7.0677745e-02
  -7.0157063e-02
  -5.4637619e-02
  -3.4119413e-02
  -2.3602447e-02
   6.9132771e-03
   4.2427759e-02
   7.2940998e-02
   9.8452993e-02
   1.1396374e-01
   1.5947324e-01
   1.8998150e-01
   2.3548850e-01
   2.5099426e-01
   2.7149876e-01
   2.8700201e-01
   2.9250401e-01
   2.8800476e-01
   2.8850425e-01
   2.4400248e-01
   1.9449945e-01
   1.5499517e-01
   1.1548962e-01
   7.5982819e-02
   5.1474752e-02
   3.1965423e-02
   2.2454829e-02
   2.2942970e-02
   3.8429846e-02
   2.3915454e-02
   2.4399794e-02
   2.9882865e-02
   3.0364666e-02
   3.5845196e-02
   2.6324453e-02
   2.6802437e-02
   2.2791477e-03
   1.2754583e-02
   3.2287416e-03
  -1.1298377e-02
  -8.2677289e-04
  -2.0356448e-02
  -1.4887404e-02
  -1.9419640e-02
  -2.8953159e-02
  -2.8487960e-02
  -2.8024045e-02
  -2.7561415e-02
  -2.2100071e-02
  -4.6640014e-02
  -2.6181244e-02
  -5.0723763e-02
  -3.0267571e-02
  -4.9812670e-02
  -4.4359060e-02
  -3.8906742e-02
  -2.8455718e-02
  -3.8005987e-02
  -2.7557552e-02
  -4.2110412e-02
  -2.6664569e-02
   3.7799766e-03
   6.9223224e-02
   8.4665171e-02
   1.1510582e-01
   2.3554516e-01
   2.1098321e-01
   1.2641995e-01
   7.6855388e-02
   2.2289522e-02
  -2.7277650e-02
  -1.3184613e-01
  -1.1141591e-01
  -1.4598701e-01
  -1.1055941e-01
  -1.6513312e-01
  -4.7081406e-03
   5.5071553e-01
   1.3311379e+00
   1.5065589e+00
   2.1978655e-02
  -7.0260293e-01
  -5.7718583e-01
  -3.0677004e-01
  -9.1355577e-02
  -1.0094243e-01
  -6.0530594e-02
  -8.0120081e-02
  -5.9710887e-02
  -5.9303014e-02
  -3.8896462e-02
  -2.8491231e-02
   1.9126762e-03
   2.2315261e-02
   4.7716521e-02
   6.8116456e-02
   9.3515066e-02
   1.2391235e-01
   1.5430831e-01
   1.7970294e-01
   2.3509624e-01
   2.6548821e-01
   3.0587885e-01
   3.3126816e-01
   3.3665614e-01
   3.3704279e-01
   3.5242811e-01
   3.2281209e-01
   2.9819474e-01
   2.5357606e-01
   2.0395604e-01
   1.5933468e-01
   1.2971199e-01
   9.5087958e-02
   8.0462592e-02
   7.5835887e-02
   7.6207843e-02
   6.1578460e-02
   6.6947736e-02
   6.7315672e-02
   7.2682267e-02
   8.3047520e-02
   7.3411430e-02
   7.8773997e-02
   6.4135221e-02
   7.4495100e-02
   7.4853634e-02
   5.0210823e-02
   3.5566666e-02
   3.0921163e-02
   3.6274312e-02
   3.1626114e-02
   1.6976568e-02
   1.2325673e-02
   1.2673429e-02
   2.8019835e-02
   2.8364890e-02
   1.3708595e-02
   1.9050949e-02
   4.3919503e-03
   9.7315996e-03
   2.0069896e-02
   2.5406839e-02
   1.0742428e-02
   2.1076663e-02
   1.4095434e-03
   1.7410683e-03
   1.2071237e-02
   1.2400050e-02
  -7.2724938e-03
   8.0536052e-03
  -6.6216535e-03
   3.7017298e-03
   4.0237546e-03
   7.9344420e-02
   1.2466373e-01
   1.0998167e-01
   1.6529826e-01
   2.6061349e-01
   2.1092735e-01
   1.2623985e-01
   7.6550995e-02
   7.1860774e-02
  -5.2830810e-02
  -8.7523756e-02
  -9.2218066e-02
  -9.6913740e-02
  -9.1610779e-02
  -1.4630918e-01
   1.7399105e-01
   9.8428992e-01
   1.6045874e+00
   8.0488355e-01
  -2.7482168e-01
  -6.4452827e-01
  -4.2423624e-01
  -1.6394557e-01
  -5.8656271e-02
  -4.8368339e-02
  -4.3081775e-02
  -2.7796580e-02
  -7.5127543e-03
  -2.2302975e-03
   8.0507897e-03
   2.3330507e-02
   2.8608854e-02
   5.8885831e-02
   8.4161437e-02
   1.2443567e-01
   1.2470854e-01
   1.5498003e-01
   1.9025015e-01
   2.4551890e-01
   2.7078627e-01
   3.1105228e-01
   3.1631691e-01
   3.5158017e-01
   3.6684205e-01
   3.7210256e-01
   3.5236170e-01
   3.4261946e-01
   3.0787585e-01
   2.7813087e-01
   2.3338451e-01
   1.8363677e-01
   1.4388767e-01
   1.2913718e-01
   1.1438532e-01
   1.0463209e-01
   1.0987748e-01
   9.0121490e-02
   1.0536413e-01
   1.1060539e-01
   1.2584528e-01
   1.0608378e-01
   1.0132092e-01
   1.2155667e-01
   1.0679105e-01
   9.2024053e-02
   7.7255678e-02
   8.7485926e-02
   7.2714796e-02
   6.2942289e-02
   6.3168405e-02
   5.8393143e-02
   5.3616503e-02
   6.8838485e-02
   4.4059090e-02
   3.9278316e-02
   2.4496165e-02
   3.9712635e-02
   3.4927727e-02
   4.5141441e-02
   2.5353777e-02
   4.0564734e-02
   2.5774313e-02
   1.5982513e-02
   1.6189335e-02
   2.6394779e-02
   1.1598844e-02
   3.1801530e-02
  -2.9971617e-03
   3.7202768e-02
   3.7401318e-02
   9.7598491e-02
   1.4779428e-01
   1.5298870e-01
   2.3818174e-01
   2.8837339e-01
   2.0856367e-01
   1.4375257e-01
   8.8940097e-02
   6.9126241e-02
  -6.0688993e-02
  -4.5505606e-02
  -9.5323597e-02
  -6.5142966e-02
  -9.4963713e-02
  -2.4785838e-02
   4.0539066e-01
   1.2605658e+00
   1.7707395e+00
   2.7591188e-01
  -5.4391713e-01
  -6.0374753e-01
  -3.4857929e-01
  -7.8412442e-02
  -5.3246966e-02
  -2.3082868e-02
  -3.7920146e-02
  -2.7588013e-03
   1.2401167e-02
   3.7559758e-02
   2.7716973e-02
   6.7872811e-02
   6.8027273e-02
   1.1318036e-01
   1.1333207e-01
   1.6348240e-01
   1.7863136e-01
   2.1877895e-01
   2.4392515e-01
   2.8406999e-01
   3.3421345e-01
   3.6435553e-01
   3.7449624e-01
   4.0463558e-01
   4.0477354e-01
   4.0491012e-01
   3.9004534e-01
   3.8517918e-01
   3.3031164e-01
   3.0044274e-01
   2.4057246e-01
   2.0570081e-01
   1.6082779e-01
   1.5095339e-01
   1.3107762e-01
   1.2620049e-01
   1.3132198e-01
   1.2144210e-01
   1.3156085e-01
   1.3167822e-01
   1.2679423e-01
   1.3190887e-01
   1.2702214e-01
   1.3213404e-01
   1.1224457e-01
   9.2353735e-02
   1.0746153e-01
   1.0256796e-01
   7.7673015e-02
   8.2776707e-02
   8.2879032e-02
   7.7979990e-02
   7.3079582e-02
   7.8177808e-02
   4.8274668e-02
   5.8370163e-02
   5.3464294e-02
   6.8557059e-02
   4.3648461e-02
   3.8738499e-02
   3.8827174e-02
   4.8914485e-02
   3.4000434e-02
   4.9085021e-02
   3.4168246e-02
   4.9250110e-02
   1.9330613e-02
   3.4409755e-02
   1.9487537e-02
   3.4563959e-02
   4.9639023e-02
   1.2971273e-01
   1.5478507e-01
   1.5985606e-01
   2.6492569e-01
   2.8499396e-01
   2.1506088e-01
   1.6012644e-01
   9.5190646e-02
   7.0253495e-02
  -5.4685010e-02
  -5.4624869e-02
  -7.9566082e-02
  -4.9508649e-02
  -9.9452568e-02
  -3.4397839e-02
   4.1065554e-01
   1.3207076e+00
   1.8807582e+00
   3.0080756e-01
  -5.6414446e-01
  -5.3909784e-01
  -3.0905256e-01
  -4.4008632e-02
  -3.3966050e-02
  -2.8924816e-02
  -3.3884928e-02
   1.1536137e-03
  -3.8091898e-03
   3.1226662e-02
   4.1261170e-02
   5.6294334e-02
   5.6326155e-02
   1.0135663e-01
   1.1138577e-01
   1.6141356e-01
   1.6144002e-01
   2.0146513e-01
   2.5148891e-01
   2.9151135e-01
   3.0653244e-01
   3.7155220e-01
   3.8157063e-01
   4.0658771e-01
   4.0660347e-01
   4.1661788e-01
   4.1163096e-01
   3.8164271e-01
   3.3665313e-01
   2.9666221e-01
   2.4166996e-01
   2.0167638e-01
   1.8168147e-01
   1.3668523e-01
   1.3168766e-01
   1.2168876e-01
   1.2168853e-01
   1.3668698e-01
   1.2168410e-01
   1.2167990e-01
   1.2167437e-01
   1.1666752e-01
   1.2165934e-01
   1.2664984e-01
   1.2163902e-01
   1.0662687e-01
   1.1161341e-01
   1.0659863e-01
   9.1582524e-02
   8.1565103e-02
   8.1546365e-02
   7.1526310e-02
   6.6504939e-02
   6.6482253e-02
   6.1458253e-02
   6.1432938e-02
   7.1406311e-02
   5.1378372e-02
   6.6349122e-02
   5.1318561e-02
   5.6286691e-02
   3.1253511e-02
   3.6219024e-02
   4.1183229e-02
   6.1146128e-02
   3.6107722e-02
   4.1068011e-02
   4.1026995e-02
   5.0984677e-02
   3.0941056e-02
   4.0896135e-02
   7.0849912e-02
   1.2080239e-01
   1.5575357e-01
   1.6070345e-01
   2.7065203e-01
   2.8059932e-01
   2.2054532e-01
   1.6049001e-01
   9.5433418e-02
   7.5375530e-02
  -5.4683649e-02
  -5.4744120e-02
  -7.4805880e-02
  -2.9868929e-02
  -7.9933267e-02
  -2.9998891e-02
   3.9993420e-01
   1.3048660e+00
   1.8647965e+00
   2.8972576e-01
  -5.6034629e-01
  -5.3541962e-01
  -2.9049422e-01
  -4.0570112e-02
  -4.0647279e-02
  -2.0725723e-02
  -5.8054440e-03
   9.1135593e-03
  -9.6871210e-04
   3.3947743e-02
   2.8862925e-02
   5.8776835e-02
   7.3689475e-02
   1.1860084e-01
   1.1851095e-01
   1.4841978e-01
   1.8832734e-01
   2.0323365e-01
   2.3313868e-01
   3.0304245e-01
   3.3794496e-01
   3.6784621e-01
   3.7774620e-01
   4.1264493e-01
   4.1254240e-01
   4.2743861e-01
   4.0233357e-01
   3.8722727e-01
   3.4211971e-01
   2.7201091e-01
   2.2190085e-01
   1.9678954e-01
   1.6167698e-01
   1.3156317e-01
   1.2144812e-01
   1.2133181e-01
   1.3121427e-01
   1.1609547e-01
   1.2597544e-01
   1.0585416e-01
   1.1073164e-01
   1.3060788e-01
   1.2048289e-01
   1.3035665e-01
   1.0522918e-01
   8.0100474e-02
   9.4970534e-02
   9.4839360e-02
   8.4706954e-02
   7.4573318e-02
   6.9438452e-02
   5.9302358e-02
   6.9165036e-02
   5.4026489e-02
   6.3886716e-02
   5.3745721e-02
   4.8603502e-02
   5.3460062e-02
   5.8315403e-02
   4.8169524e-02
   4.8022428e-02
   4.2874115e-02
   4.2724587e-02
   2.7573845e-02
   5.2421891e-02
   3.7268725e-02
   4.7114348e-02
   1.6958762e-02
   4.6801969e-02
   4.1643969e-02
   2.6484764e-02
   4.1324354e-02
   1.0616274e-01
   1.6099993e-01
   1.8583591e-01
   2.2067070e-01
   3.0550429e-01
   2.3533668e-01
   1.7516788e-01
   1.1499788e-01
   7.4826696e-02
  -4.5345684e-02
  -3.5519254e-02
  -6.5694013e-02
  -5.5869959e-02
  -7.6047091e-02
  -1.0122541e-01
   2.9359509e-01
   1.1384144e+00
   1.7332325e+00
   5.1804950e-01
  -3.8213472e-01
  -6.1232012e-01
  -3.9750669e-01
  -1.2269443e-01
  -5.7883354e-02
  -3.3073445e-02
  -4.8264706e-02
  -3.4571356e-03
  -2.3650732e-02
   1.6154505e-02
   1.5958578e-02
   4.0761488e-02
   4.5563236e-02
   7.5363824e-02
   8.5163253e-02
   1.1996152e-01
   1.3975864e-01
   1.7955460e-01
   1.8934941e-01
   2.4914306e-01
   2.7893557e-01
   3.2372692e-01
   3.5851713e-01
   3.7330620e-01
   3.5309411e-01
   3.6788089e-01
   3.7266652e-01
   3.6245101e-01
   3.3223437e-01
   2.7201658e-01
   2.3179766e-01
   1.7657761e-01
   1.5135642e-01
   1.2613410e-01
   9.5910649e-02
   1.1568607e-01
   9.0460365e-02
   1.0523353e-01
   1.1000558e-01
   9.9776500e-02
   1.1454630e-01
   1.0931498e-01
   1.1408255e-01
   9.3848991e-02
   8.3614322e-02
   8.3378540e-02
   7.8141645e-02
   6.7903640e-02
   5.2664526e-02
   5.2424304e-02
   5.2182976e-02
   5.1940544e-02
   3.1697009e-02
   4.1452372e-02
   3.1206636e-02
   2.5959802e-02
   4.5711871e-02
   1.0462844e-02
  -4.7872752e-03
   1.9961513e-02
   1.4709211e-02
   1.4455821e-02
   1.9201343e-02
   3.9457790e-03
   1.8689131e-02
   1.3431402e-02
   8.1725907e-03
  -2.0872992e-03
   1.7651733e-02
   7.7389690e-02
   1.0712657e-01
   1.4186238e-01
   1.5659712e-01
   2.9133079e-01
   2.5606339e-01
   1.5079492e-01
   8.5525393e-02
   8.0254800e-02
  -1.0016854e-02
  -9.0289568e-02
  -8.5563340e-02
  -9.0838168e-02
  -8.6114051e-02
  -1.5139099e-01
   1.4833103e-01
   8.9805199e-01
   1.5627719e+00
   1.0224908e+00
  -1.5779140e-01
  -6.7307462e-01
  -5.0335888e-01
  -2.0864418e-01
  -6.8930521e-02
  -5.9217894e-02
  -5.4506303e-02
  -3.9795744e-02
  -3.5086216e-02
  -1.0377717e-02
  -2.0670246e-02
   1.9036199e-02
   2.3741620e-02
   5.3446018e-02
   7.3149396e-02
   9.7851755e-02
   1.2255310e-01
   1.5725342e-01
   1.8695274e-01
   2.2165104e-01
   2.6134833e-01
   3.0604461e-01
   3.2573988e-01
   3.4043415e-01
   3.7012742e-01
   3.6481969e-01
   3.4951095e-01
   3.2920122e-01
   3.0389049e-01
   2.3857877e-01
   2.0326606e-01
   1.5795235e-01
   1.1263766e-01
   9.2321976e-02
   8.7005310e-02
   6.1687660e-02
   4.6369029e-02
   5.6049418e-02
   6.5728828e-02
   7.5407263e-02
   6.0084723e-02
   6.9761211e-02
   6.4436728e-02
   6.4111276e-02
   5.8784857e-02
   4.8457473e-02
   4.3129126e-02
   3.7799817e-02
   3.2469548e-02
   2.7138322e-02
   2.6806140e-02
   2.6473003e-02
  -3.8610850e-03
  -9.1961237e-03
   1.0467889e-02
  -4.8690447e-03
  -5.2069232e-03
  -5.5457444e-03
  -5.8855066e-03
  -1.2262078e-03
  -1.1567846e-02
  -2.6910420e-02
  -1.2253927e-02
  -3.2598365e-02
  -2.2943733e-02
  -2.3290028e-02
  -1.8637249e-02
  -1.3985394e-02
  -1.4334461e-02
   4.0315552e-02
   8.9964647e-02
   8.9612826e-02
   1.4426009e-01
   2.4890644e-01
   1.8855189e-01
   9.8196420e-02
   4.7840048e-02
   2.7482771e-02
  -7.2875408e-02
  -1.3823449e-01
  -1.3359447e-01
  -1.3395534e-01
  -1.2931711e-01
  -1.8467977e-01
   8.9956674e-02
   8.2459223e-01
   1.5492269e+00
   1.1138607e+00
  -1.8650641e-01
  -6.9687438e-01
  -4.6224324e-01
  -1.8761297e-01
  -1.0298358e-01
  -1.0335506e-01
  -7.8727411e-02
  -7.4100631e-02
  -6.9474718e-02
  -6.4849669e-02
  -4.0225484e-02
  -2.0602159e-02
   4.0203071e-03
   2.3641916e-02
   3.8262671e-02
   6.7882573e-02
   8.2501624e-02
   1.1711983e-01
   1.5673718e-01
   1.8635369e-01
   2.3096936e-01
   2.6558419e-01
   2.8519818e-01
   3.1481134e-01
   3.3442366e-01
   3.2903514e-01
   3.3364580e-01
   3.1825563e-01
   2.8786463e-01
   2.4247281e-01
   1.9208017e-01
   1.3668671e-01
   1.0629243e-01
   8.0897329e-02
   6.0501420e-02
   6.0104699e-02
   5.4707168e-02
   3.9308831e-02
   5.8909688e-02
   5.8509742e-02
   5.8108995e-02
   5.2707449e-02
   5.7305107e-02
   4.1901970e-02
   4.6498040e-02
   4.6093320e-02
   2.5687811e-02
   2.0281517e-02
   9.8744382e-03
   9.4665776e-03
   9.0579372e-03
  -1.3514808e-03
  -1.1761674e-02
  -1.7172641e-02
  -3.2584380e-02
  -2.2996887e-02
  -2.8410161e-02
  -2.8824200e-02
  -3.4239002e-02
  -4.4654564e-02
  -3.0070884e-02
  -3.5487961e-02
  -4.0905792e-02
  -6.1324374e-02
  -2.1743706e-02
  -4.2163786e-02
  -4.7584611e-02
  -5.3006179e-02
  -4.8428488e-02
  -5.8851536e-02
  -2.4275321e-02
  -4.4699839e-02
  -4.0125091e-02
  -2.0551072e-02
   1.4022219e-02
   9.3594785e-02
   6.8166627e-02
   1.4773775e-01
   2.1730815e-01
   1.5187783e-01
   6.6446805e-02
   1.0150627e-03
   5.5826106e-03
  -1.1985055e-01
  -1.3528442e-01
  -1.4571898e-01
  -1.3115426e-01
  -1.5659023e-01
  -1.9202689e-01
   1.6753575e-01
   1.0320977e+00
   1.6566590e+00
   5.0621952e-01
  -4.4922060e-01
  -6.7966140e-01
  -4.6010288e-01
  -1.7554504e-01
  -1.4098788e-01
  -1.1643139e-01
  -1.1187557e-01
  -9.2320425e-02
  -9.2765946e-02
  -8.3212132e-02
  -7.8658981e-02
  -4.9106491e-02
  -3.9554660e-02
   4.9965157e-03
  -4.5296290e-04
   4.4096907e-02
   4.3646127e-02
   9.3194700e-02
   1.1774263e-01
   1.5728991e-01
   2.0183656e-01
   2.3138257e-01
   2.5092794e-01
   2.7547268e-01
   2.8501679e-01
   2.9456027e-01
   2.9910312e-01
   2.7364535e-01
   2.3818695e-01
   1.8272794e-01
   1.2726831e-01
   1.0180807e-01
   5.6347208e-02
   2.5885741e-02
   2.0423665e-02
   9.9609839e-03
   1.4497700e-02
   9.0338143e-03
   8.5693304e-03
   3.1042503e-03
   1.2638576e-02
   2.2172311e-02
   1.1705456e-02
   1.1238014e-02
   1.5769988e-02
   3.0137923e-04
  -1.5167809e-02
  -1.0637575e-02
  -2.6107916e-02
  -1.1578830e-02
  -4.7050314e-02
  -3.7522366e-02
  -4.7994984e-02
  -3.8468165e-02
  -5.3941908e-02
  -5.9416209e-02
  -6.9891066e-02
  -6.5366477e-02
  -8.5842439e-02
  -6.6318951e-02
  -7.1796009e-02
  -6.7273612e-02
  -9.2751756e-02
  -6.8230441e-02
  -7.8709662e-02
  -7.9189418e-02
  -1.0966971e-01
  -7.5150526e-02
  -8.5631872e-02
  -1.0611374e-01
  -4.6596138e-02
   2.9209469e-03
   1.2437514e-02
   4.1953565e-02
   1.3646910e-01
   1.4098413e-01
   7.5498650e-02
  -4.9873373e-03
  -3.0473828e-02
  -7.5960820e-02
  -1.7644831e-01
  -1.8693630e-01
  -2.1742478e-01
  -1.8291375e-01
  -2.3840321e-01
  -1.3889316e-01
   3.2061641e-01
   1.1751255e+00
   1.5896341e+00
   4.4142230e-02
  -7.3635012e-01
  -7.1184293e-01
  -4.5733622e-01
  -1.9282997e-01
  -2.1832419e-01
  -1.6381887e-01
  -1.5431401e-01
  -1.3480961e-01
  -1.6530566e-01
  -1.1580217e-01
  -1.1629912e-01
  -9.1796528e-02
  -8.2294376e-02
  -2.2792667e-02
  -4.3291398e-02
   1.2094325e-03
   2.5709828e-02
   5.5209791e-02
   7.4709324e-02
