  -3.4955553e-01
   6.5711466e-02
  -6.7455153e-02
  -6.8207461e-02
  -1.9556143e-01
  -1.8854932e-01
   2.1637092e-01
  -1.1476436e-01
   1.0904506e-01
  -2.9532267e-01
  -3.6555459e-01
  -2.8507956e-01
  -2.8759036e-02
   3.3190306e-02
   2.2744921e-01
  -4.0682824e-01
  -3.0043905e-01
  -1.2331366e-01
  -2.0203268e-01
  -3.7704735e-01
   1.2722375e-01
  -1.4530872e-01
   8.3720010e-02
   8.1790449e-02
  -3.0281469e-01
   2.2094604e-01
   3.6968141e-02
  -3.8846314e-02
   1.2313742e-02
   7.1212658e-02
   2.0629740e-01
  -9.2185117e-02
  -5.0263714e-01
   2.0478305e-02
  -3.2383782e-01
   4.6037941e-02
  -6.8011652e-02
   2.0773172e-01
   8.1086507e-01
   1.1358747e+00
   7.7401537e-01
  -3.5726927e-01
  -8.5957939e-01
  -7.4042180e-01
  -3.8131494e-01
   1.2679876e-01
  -3.2785641e-01
  -1.5433407e-01
   1.6145978e-01
  -3.4435229e-01
  -1.4140868e-01
  -2.7539939e-02
  -1.4050877e-02
   5.6114053e-02
  -2.0762387e-01
  -8.3292972e-02
   2.1452666e-01
   3.1761898e-01
   2.3803368e-02
  -5.0587629e-02
   6.7560283e-02
   4.8020285e-03
   2.2509082e-02
  -4.7876830e-02
  -1.8416772e-02
   2.1076318e-01
  -5.4391542e-02
   5.2378724e-01
  -2.1066625e-02
  -4.7664561e-02
   3.1240651e-01
   2.4742612e-01
  -2.9036320e-02
  -2.5167947e-01
  -3.2922637e-01
  -7.9054678e-02
   2.0681500e-01
  -3.1899760e-02
  -2.8026272e-01
   2.1908180e-01
   1.2161849e-01
  -2.8345135e-02
   2.8353653e-02
   2.8665316e-02
   9.0776741e-02
   1.0759510e-01
  -2.1571849e-01
   2.0121244e-01
  -2.2740031e-01
  -8.2094453e-02
  -2.0001465e-01
  -1.8445619e-01
  -3.7393205e-01
   2.6979657e-01
  -2.5846353e-02
  -6.0112074e-02
  -1.8529190e-02
  -1.5423152e-01
  -1.6233474e-01
   2.9680152e-01
  -6.8398168e-02
   1.2780266e-01
   6.3971179e-02
   1.5191440e-01
  -2.1921960e-01
  -2.1125941e-01
   8.7079025e-02
  -2.7575402e-01
   1.6859235e-01
  -2.9623449e-01
   2.5228597e-01
   9.5783632e-02
  -3.1602612e-01
   1.8716475e-01
   2.3218492e-01
  -1.5070733e-02
  -1.5082367e-01
  -1.1587825e-01
   6.6176519e-02
  -2.4296991e-01
  -4.1002938e-01
   2.4357566e-01
   2.8231827e-01
   1.8563829e-01
   3.7258099e-01
   4.1287070e-02
  -1.6041214e-01
   1.7505709e-01
   3.1481334e-01
   1.7637414e-01
   2.5678566e-01
   1.8077528e-01
  -3.7977331e-02
  -3.1762794e-01
  -2.8453516e-01
   7.5006480e-02
  -2.5487954e-01
  -5.0375741e-01
   3.8090906e-01
   7.8976184e-01
   1.1204566e+00
   1.8300749e-01
  -2.2825222e-01
  -7.6621726e-01
  -6.2673056e-01
  -2.9106028e-01
  -1.3371331e-01
  -2.8491977e-01
  -1.5017474e-01
  -4.6062718e-01
  -3.4499487e-01
  -2.2750980e-01
   8.1125193e-02
  -1.8374660e-02
   8.0845028e-02
   1.8826510e-01
   2.4638967e-01
  -2.3759533e-01
   1.5008456e-01
   2.5706603e-01
   2.3649015e-01
   2.0358292e-01
  -1.6321336e-01
  -8.3949366e-03
   9.1477189e-02
   3.1998338e-01
   2.7182749e-02
  -4.6163135e-02
   5.8641255e-01
   2.4731273e-02
   5.3327734e-01
   2.4725971e-01
  -6.1415013e-02
   8.7570551e-02
   1.9898174e-01
  -1.3309168e-01
  -2.6471980e-01
   4.9768648e-02
  -1.6676876e-01
  -1.0647709e-01
   3.5119316e-01
  -1.1356666e-01
   3.4237325e-01
  -4.2606693e-02
  -3.0776648e-01
  -1.1795170e-01
  -2.3635521e-01
   3.5085778e-01
  -3.9832557e-02
   2.6652801e-02
  -1.8636776e-01
   2.5777886e-01
  -2.9285725e-01
   1.9149388e-01
  -8.0976989e-02
   2.6924128e-01
  -5.3914888e-03
   2.3458425e-01
  -1.4303243e-01
  -1.0989331e-01
   3.3546023e-02
   2.5806255e-01
  -2.8690909e-01
  -3.6048281e-01
  -9.9272727e-02
   2.6995381e-02
   2.6377551e-01
  -1.7935693e-01
  -3.4724603e-03
   1.5217724e-01
  -1.6582032e-01
  -3.4831606e-01
  -9.5822171e-02
  -3.8964623e-01
   6.2773267e-02
  -3.4688674e-01
  -2.6025180e-01
  -3.8886923e-02
   2.9149793e-02
  -1.5348236e-01
   4.5175438e-03
   2.0247208e-01
   1.5136198e-01
  -1.9988260e-02
   1.2530806e-01
   4.8416146e-03
   3.4414271e-01
  -9.6695982e-03
  -2.6995573e-01
  -1.6343835e-01
  -1.9471826e-01
  -5.0874516e-01
  -3.9172002e-01
   7.2643158e-02
  -6.0836281e-02
   2.9576321e-02
  -2.6034167e-01
   6.4216345e-01
   8.9115328e-01
   1.7749177e+00
   5.0520616e-03
  -8.5430435e-01
  -4.4714086e-01
  -5.3268955e-01
  -1.8393315e-01
   3.3718829e-03
   8.2294916e-02
  -2.2887031e-01
  -4.1235456e-01
  -2.8422587e-01
   1.0936151e-01
   2.0080252e-01
  -2.2218988e-02
   2.5161509e-01
   4.3073876e-02
   3.3656638e-01
   2.1864395e-01
  -1.8006889e-01
   9.6739004e-02
   2.1810647e-01
   4.2326563e-01
   2.6008286e-01
   5.6976857e-01
  -2.4576590e-02
   1.0535945e-01
   2.3881556e-01
   7.0770257e-04
   5.4686426e-02
  -8.2495690e-03
   3.0041090e-01
   1.8049388e-02
   2.9841127e-01
   9.2209734e-02
  -1.5861041e-01
   1.4573373e-01
  -3.0564218e-01
   6.0818975e-02
   3.5563362e-01
  -9.5921679e-02
   4.6104462e-02
   3.0909625e-01
  -1.5308645e-01
   2.3273252e-01
  -2.2241187e-01
   2.6588954e-01
  -1.5425706e-01
   2.2463320e-01
   1.8970121e-01
  -2.3261239e-01
   3.1999127e-01
  -1.8739064e-01
   1.6498229e-01
   1.7754918e-01
  -3.6432937e-02
   2.4600621e-01
  -3.1931152e-01
  -2.9492279e-01
   2.0582176e-01
  -3.8694746e-01
   1.1982959e-01
   1.7166051e-01
  -3.1864569e-01
  -5.8010533e-02
  -1.6178612e-01
   1.3172370e-01
  -2.0029929e-01
   1.6207770e-01
  -2.8385724e-01
   1.7955042e-01
   2.4323833e-01
  -2.9122738e-01
  -3.6975325e-01
  -4.1085370e-02
  -4.0833747e-01
   1.5985457e-01
   2.1098108e-01
   4.3707721e-02
  -2.4966878e-01
   1.7462114e-02
   3.1722997e-01
   3.2685141e-01
   1.3935834e-01
   3.7466483e-01
   3.9031727e-01
   1.2709876e-01
  -3.1451343e-01
  -1.9410741e-01
  -7.7635983e-02
  -2.0854299e-01
   9.7663127e-02
  -4.9265134e-01
  -2.7706525e-01
  -4.3105655e-01
  -2.9777536e-01
   4.6947364e-01
   1.0017434e+00
   1.4061392e+00
  -1.8223869e-01
  -8.8048880e-01
  -3.9271731e-01
  -4.7023966e-01
  -4.4139347e-02
   1.3006930e-01
  -1.9146322e-01
  -7.6387975e-02
   1.9370910e-01
  -2.3474433e-01
  -4.8866949e-03
  -2.4467144e-01
   1.8500109e-01
  -2.2311869e-01
  -1.8824374e-01
   2.5495745e-01
   1.9211210e-05
  -1.8500224e-01
  -2.7692653e-01
  -1.4585374e-01
   6.6383834e-03
   4.9800773e-01
   4.0356020e-01
   3.3627952e-01
   4.7350559e-01
   1.8459800e-01
   3.8761614e-01
   2.2190063e-01
   4.3940319e-01
   1.3617314e-01
   3.9698169e-01
  -2.4877194e-01
   4.0222178e-01
  -1.4235926e-01
  -3.1653851e-01
  -2.5853003e-01
  -2.4282692e-02
   2.6218964e-01
  -1.6160662e-01
   1.8388892e-01
  -2.3572525e-01
   1.6190548e-01
  -1.7736472e-01
  -2.9771135e-01
   2.3203612e-01
   1.1558651e-01
   3.0067743e-01
   3.1453892e-01
  -1.5694167e-02
   2.2918631e-01
  -6.6345966e-02
   2.1776988e-01
  -3.8330517e-01
  -3.2989262e-01
   9.8448143e-02
  -1.4628586e-01
  -1.5446008e-01
   1.2938426e-03
  -4.0828017e-01
  -1.5363031e-01
  -3.9027771e-01
   5.7699394e-02
  -7.0726366e-02
  -3.7173948e-01
  -1.4061818e-01
  -1.2385099e-01
   3.1518592e-02
  -2.8212618e-01
  -3.8323794e-01
  -9.7629829e-02
   8.0070202e-02
   4.7886853e-03
   1.8041842e-01
  -2.6805445e-01
  -2.7593328e-01
  -2.6993651e-01
   1.4209066e-01
   1.1668634e-01
   2.9495340e-01
   1.6770786e-01
   1.9775617e-01
   1.0770420e-01
   1.4895552e-01
   3.6821793e-01
   2.8012079e-01
  -1.4922721e-01
  -3.9118094e-01
  -2.5804462e-01
  -1.7186609e-01
  -5.2417352e-01
   6.1694390e-02
   5.1089970e-02
   9.3033269e-02
   6.3150090e-01
   1.5451180e+00
   7.2480127e-01
  -3.7747694e-01
  -9.1558487e-01
  -2.9893999e-01
   3.6949747e-02
  -4.1023984e-01
   1.5777012e-01
  -4.9981740e-01
  -1.7783649e-01
  -4.8218256e-01
  -3.0583915e-01
   4.4888942e-02
   6.0915056e-02
  -2.2441541e-01
  -1.5639847e-01
  -2.9973624e-01
  -3.1088045e-01
   2.1649611e-01
  -5.2587855e-02
   1.1527527e-01
   4.5632152e-01
   2.8828489e-01
   1.9118513e-01
   3.3456051e-01
   3.6594514e-01
   7.1103210e-02
   4.7342277e-01
   2.6194953e-01
   1.8882080e-01
   3.4632351e-01
   1.9368479e-01
  -5.6497347e-02
  -2.2735960e-01
   9.7371666e-02
   1.3196945e-01
   7.1609389e-02
   2.3591580e-02
  -1.9168540e-02
  -1.2833216e-01
  -4.8309739e-02
   1.8542846e-01
   3.4752387e-01
  -1.6448720e-01
   2.0444690e-01
  -2.5577352e-01
  -3.2512470e-01
  -4.2237458e-02
   3.4083945e-02
  -2.0338204e-01
  -2.7366630e-01
   9.3967080e-02
  -1.4215064e-01
  -3.7669385e-02
   8.1294656e-02
   1.1705064e-02
  -5.5722471e-02
   1.3347948e-01
   6.4641921e-02
  -1.9135445e-01
   1.6750002e-01
   5.2575094e-02
  -4.0522456e-03
  -4.0164510e-01
   1.5586502e-01
  -3.4520149e-01
   1.5829431e-01
  -1.8375229e-01
  -1.3439506e-01
   1.3564507e-01
  -3.3590276e-01
   5.6712903e-03
   2.1644018e-01
   2.5510633e-02
  -4.0656054e-01
   5.8842288e-02
  -2.6002333e-01
   5.8631053e-02
  -1.9077416e-01
  -5.0681041e-02
  -2.4950066e-01
   2.8884113e-01
  -4.8521183e-02
  -2.5482845e-01
  -1.7834904e-01
   2.2883056e-01
   3.7089765e-01
  -1.2104529e-01
   1.2662231e-01
  -2.0275012e-01
  -4.5295217e-01
  -1.8014330e-01
  -2.8874169e-01
   1.5502683e-01
  -3.5072758e-01
  -9.5360206e-02
   3.0494951e-01
   1.2310992e+00
   1.6826400e+00
  -1.4909842e-01
  -9.6370526e-01
  -4.2689125e-01
  -6.8721104e-01
   5.6135614e-02
  -2.4550818e-01
   8.6008006e-02
   1.7472484e-01
  -1.7926186e-01
  -4.4226661e-01
   1.0592574e-01
  -3.9460848e-03
  -5.3826431e-02
  -7.6196900e-03
  -1.4856639e-01
   1.6799518e-01
  -8.9337405e-02
   3.1334806e-01
  -3.1440856e-02
   3.2221020e-01
   3.7834868e-01
  -1.0983293e-01
   1.7675359e-01
   5.7563415e-01
   2.0006316e-01
   1.3636650e-01
   3.4546065e-01
   5.0061776e-01
   4.3179879e-01
   2.1188682e-01
   3.1416931e-01
   2.7280442e-01
   2.1356225e-02
   2.7028690e-01
   1.1744018e-03
   3.1371027e-01
   1.9845173e-01
  -2.5686879e-01
  -1.8356117e-01
  -2.6059357e-01
   2.3884279e-02
  -3.1031232e-01
  -2.1997501e-02
   3.4288146e-01
   1.2755481e-01
   2.5463050e-01
  -7.6526042e-03
  -1.5863645e-01
  -2.3688648e-01
   3.0285331e-01
   1.5438303e-01
   2.8024744e-01
   7.4886654e-02
  -2.5476177e-01
  -1.9711063e-01
  -3.5925452e-01
  -3.7415364e-01
  -2.0930882e-01
  -2.9067127e-01
   6.8970392e-02
   2.2169255e-01
  -1.6860887e-01
  -3.4488904e-01
   1.4510157e-01
  -8.2097300e-02
   8.1138845e-02
   5.8154970e-02
  -1.1499488e-01
   4.6539768e-02
   3.8398990e-02
  -5.2397794e-02
  -2.7610299e-01
  -7.1665793e-02
   1.0883118e-01
  -1.3612116e-01
   8.6235594e-02
   4.5527414e-02
   2.4400821e-01
  -2.1946548e-01
  -1.8538940e-01
  -1.6907650e-01
  -4.1167687e-01
   4.8482484e-02
   4.5675741e-02
  -5.4142011e-02
   1.5021089e-02
   1.5354019e-01
   1.5107143e-02
  -1.4203682e-01
  -2.6884418e-01
  -2.9122373e-01
   2.2756641e-01
  -1.9029692e-01
  -1.1250461e-02
  -3.2234539e-01
  -5.1460630e-01
  -1.4406483e-01
  -1.2469866e-01
   6.0418035e-01
   1.3721841e+00
   9.0594725e-01
  -8.1887160e-03
  -6.4233247e-01
  -6.0473737e-01
  -3.8678012e-01
   1.7669140e-01
  -3.8238513e-01
  -9.8425510e-02
  -5.6467857e-02
  -4.4890900e-01
  -1.5408860e-02
   1.4171279e-01
  -1.5840479e-01
  -1.1886046e-01
  -3.5558206e-01
   2.6964232e-02
   2.4517738e-01
  -1.9516505e-01
  -2.5377298e-01
  -1.3843346e-01
   2.1748560e-01
   3.0269463e-01
   2.6170731e-01
   1.9274431e-01
   1.0005363e-01
   3.4402666e-01
   2.8841883e-01
   3.7460867e-01
  -2.2586069e-02
   3.4681902e-01
   3.0621789e-01
   4.6108410e-01
   3.4517378e-01
  -1.6032975e-01
   3.5946844e-01
  -1.6526401e-01
  -1.8262354e-01
  -3.4403464e-01
  -1.3456140e-01
  -1.5287042e-01
   7.0513916e-02
  -7.2413007e-02
  -2.1951806e-01
  -8.0028521e-02
  -2.4678431e-01
   2.2261312e-01
  -2.6517355e-01
   9.5682166e-02
   1.4506299e-01
  -3.6457699e-01
  -2.9042745e-01
  -3.5854108e-01
   1.5608686e-01
  -3.6699783e-01
   7.1327035e-02
  -7.5777295e-02
   1.5709747e-01
  -1.5909277e-01
  -3.8726617e-01
  -2.6198829e-01
   8.2640430e-02
  -2.5755450e-02
   2.0378512e-01
   1.0718496e-01
  -3.4773891e-01
   2.7500325e-01
   9.2098825e-02
  -4.0029970e-01
   5.0385166e-02
  -8.5148088e-02
  -4.0569715e-01
  -3.4989227e-01
  -3.8636242e-01
  -4.5227252e-03
  -2.7657390e-01
  -3.2059199e-01
  -4.8878761e-02
   2.8121094e-01
   1.0683194e-01
   1.7792434e-01
  -8.5901893e-02
  -2.0209298e-02
  -1.9384361e-01
   1.5435548e-01
  -2.4921801e-02
  -2.9939685e-02
   1.2318651e-01
   1.7086043e-01
   1.1781555e-02
  -3.4232439e-01
  -5.6612777e-02
  -1.8486189e-02
   2.0533287e-01
   1.0707075e+00
   1.6487846e+00
   6.7129681e-01
  -6.3174349e-01
  -8.8596156e-01
  -8.7628150e-01
   2.9499070e-02
  -1.7087285e-01
   5.6349891e-02
  -1.7521526e-01
  -1.3905352e-01
  -1.9200023e-01
   1.4924051e-01
   1.5699958e-01
   8.2052587e-03
  -2.1540448e-01
  -2.0082516e-01
  -2.1814997e-01
   1.4304354e-01
   2.1222831e-01
   2.9085749e-01
   2.7933275e-01
  -6.7360333e-02
   3.5034990e-01
   2.8079611e-01
   7.0510970e-03
   1.4175373e-01
   1.8724115e-01
   2.2039169e-01
   2.5840008e-01
   1.0660161e-01
   2.9001020e-02
   2.7747001e-01
   3.9385489e-01
   1.1592233e-01
   9.0163541e-02
   1.7711172e-01
  -9.4149772e-02
  -4.7710737e-02
  -3.4371048e-03
   3.0009758e-01
  -3.4448535e-02
   9.6204408e-02
  -2.8445300e-02
   3.7642122e-02
  -3.2113714e-01
   2.0654153e-01
   1.2005814e-01
  -2.3477068e-01
  -3.6478954e-01
   1.5921622e-01
   2.2258232e-02
   7.7949661e-02
   4.4318272e-02
   1.2903114e-01
   2.2112861e-01
   7.1136307e-02
  -3.2052778e-01
   9.9614914e-02
  -9.1940974e-02
   4.3687647e-02
   2.4227290e-02
   7.4862776e-02
  -3.7382065e-01
  -2.4323272e-01
  -3.1241290e-01
   2.2497058e-01
  -6.4338306e-02
   4.6354462e-02
   3.2460158e-02
  -3.5297700e-01
  -2.7244857e-01
  -2.3606755e-01
   2.1463461e-01
  -2.0962890e-01
  -1.5596571e-01
   1.6840353e-01
   2.2894346e-01
   3.0757380e-01
   3.5097230e-01
   1.7910699e-01
  -3.8139593e-01
   1.8622535e-02
   1.2961378e-01
  -4.7082540e-01
  -1.7180757e-01
   1.2156196e-01
  -4.1538294e-01
  -1.9227629e-01
  -1.0128262e-01
   1.1241091e+00
   1.3452681e+00
   1.5602189e-01
  -1.1372341e-01
  -5.5102101e-01
  -2.9704501e-01
  -1.2174613e-01
  -3.7418739e-02
  -1.4338688e-01
  -3.8280241e-01
  -1.3988901e-01
  -9.3322093e-02
   1.1979619e-01
  -3.2299198e-01
  -6.5577646e-02
   1.3546785e-01
  -1.4642688e-01
  -1.5714757e-03
   1.6220649e-01
  -1.8824134e-01
   1.4062983e-01
  -2.5993769e-01
   1.3922389e-01
   2.1888031e-01
  -1.4007431e-01
   4.8473072e-01
   4.8323552e-01
   4.2761582e-01
   4.5169495e-01
   1.3654071e-01
  -1.8381616e-02
   6.6582212e-02
   2.2656855e-01
   4.0235572e-01
  -2.4967528e-01
   1.7714444e-01
  -3.2631285e-01
   1.6001093e-01
  -6.0557451e-02
  -3.4349689e-01
   2.0942065e-01
  -2.6470191e-01
  -2.9944825e-01
  -1.9490739e-01
  -1.7492960e-01
   3.4262736e-02
   8.9226695e-02
   3.0134958e-01
   2.9028253e-01
   1.3027544e-01
  -1.9745828e-01
   2.4780962e-01
  -1.2224234e-01
  -2.6336370e-01
   3.0391055e-02
  -4.3459167e-01
  -4.1469015e-01
  -3.2381651e-01
  -2.7467443e-01
   5.8550294e-02
  -1.5499271e-01
   1.5184484e-01
  -1.6214693e-01
   1.1628654e-01
   9.3893057e-02
  -6.6297269e-02
  -3.5259848e-01
  -8.4811870e-02
  -1.1113037e-01
  -1.4931931e-01
  -2.7473901e-01
  -1.2859819e-01
  -5.4914350e-02
   1.0757855e-01
  -9.2618241e-02
  -5.3261084e-02
  -1.5314222e-01
   1.8908654e-01
  -2.0053724e-01
   7.5401502e-02
  -3.4237936e-01
   2.8022369e-03
  -9.3553704e-02
  -5.7242181e-01
   6.1058013e-02
   1.0602661e-01
   1.3087252e+00
   1.6795311e+00
  -7.7357528e-03
  -6.1805996e-01
  -6.1477148e-01
  -6.0081213e-01
   3.4258276e-02
  -3.2365459e-01
   1.5706292e-01
  -2.7106740e-01
  -8.4587770e-02
  -2.3644676e-01
  -2.8389423e-01
  -5.3332541e-02
  -3.2962006e-01
  -2.9899128e-01
  -2.9890076e-01
  -1.3738147e-01
   2.4384547e-01
   6.4490379e-02
   3.5653349e-01
   4.6634104e-01
   5.3656849e-02
  -1.1268188e-02
   2.4775662e-01
   1.4710410e-01
   5.1663400e-01
   9.7014458e-02
   5.1060472e-01
   3.1296109e-01
   3.6858387e-01
   6.0466644e-02
  -2.3350826e-01
  -1.5528747e-01
   4.5171448e-02
  -3.3303071e-01
   2.5029007e-02
  -1.8167113e-01
   1.1736885e-01
   2.3694697e-01
  -3.7272302e-01
  -1.5115548e-01
  -8.5016026e-02
  -3.1399219e-01
  -3.2445233e-01
  -3.3433663e-01
   2.4523870e-01
   2.8851581e-01
  -1.3108513e-01
  -1.7549043e-01
  -2.7680494e-02
   1.3943364e-01
   1.3381986e-01
   1.8428098e-01
   1.2857354e-01
  -4.2553651e-01
   2.0393095e-01
  -4.1742643e-01
  -4.1940846e-01
   5.3016341e-02
  -7.3110069e-02
  -7.7787994e-02
  -9.8432049e-02
  -4.0402925e-01
  -2.9897156e-01
  -3.7307178e-01
   2.3283974e-01
  -4.0563846e-01
  -3.9798344e-01
   8.8103971e-02
  -7.9159561e-02
  -2.4504066e-01
   1.9099496e-01
   3.0254172e-01
   2.9868711e-01
  -1.5668101e-01
  -9.6214155e-02
  -1.2873546e-01
  -9.9300362e-02
  -2.0938784e-02
   9.8786777e-02
  -4.6297465e-01
  -3.8099409e-01
  -3.3018243e-01
   4.1061499e-01
   7.7866587e-01
   1.8546865e+00
   6.0123713e-01
  -5.7599924e-01
  -3.7124652e-01
  -1.5922646e-01
  -1.2824826e-01
  -1.7710841e-01
  -2.7431716e-01
   2.2916480e-02
   4.4054021e-02
  -4.7475734e-01
  -4.3829114e-01
  -2.3860671e-01
   1.1978064e-01
   1.6160837e-02
   2.9295835e-01
  -2.5922518e-01
   8.1673362e-02
  -9.8897948e-02
  -2.2044505e-01
   3.7378069e-01
   2.1349101e-01
   5.2186196e-02
  -2.3509284e-03
   1.4791373e-01
  -3.2787720e-02
   3.8244290e-01
   1.0099990e-01
   4.5054276e-01
   9.9309943e-02
   1.3817057e-01
  -1.6591746e-01
  -2.3340058e-01
  -1.6439373e-01
  -1.3536605e-01
  -3.0362970e-01
  -1.2155442e-01
  -3.2506610e-01
  -2.8908405e-01
  -3.0469116e-01
   2.7815911e-01
  -1.3674153e-01
   6.4238246e-02
  -8.5662406e-02
   3.1609469e-01
   1.6967662e-01
   2.6096535e-01
   5.4227309e-02
   1.1274090e-01
  -1.0121845e-01
  -2.2870842e-01
  -2.9811798e-01
  -2.7926517e-01
   2.5201853e-01
  -3.8586263e-01
   2.0068989e-01
  -4.9370786e-02
   1.5077316e-01
  -1.0169419e-01
  -1.8242273e-01
   1.1500553e-01
  -1.7285095e-01
  -3.5375325e-02
   1.9710488e-01
   1.6311470e-01
  -2.5918096e-01
  -1.2006725e-01
   1.4498700e-01
  -3.1310770e-01
   1.0056775e-01
   1.9355594e-01
  -7.8513484e-02
  -3.0813286e-02
   1.5603737e-01
   2.5924991e-01
   1.1314949e-01
  -1.8452194e-01
  -9.3666611e-02
  -2.5635140e-01
  -5.3089847e-02
  -3.0496610e-01
  -2.7587051e-01
   1.2449151e-01
   2.0683236e-01
  -1.5296857e-01
   1.6666449e-01
   4.6269448e-02
   2.1914515e-01
   6.4882684e-02
  -3.1985702e-01
  -4.6027454e-01
  -4.9264060e-01
  -6.4681896e-02
  -4.5650965e-02
  -3.5254198e-01
   9.5378505e-02
   9.7107589e-01
   1.4225111e+00
   7.8838852e-02
  -8.8537727e-01
  -5.0550290e-01
  -5.8674463e-01
  -3.4390405e-01
  -5.0895577e-01
   8.9778679e-03
  -1.1727607e-01
  -9.8619174e-02
   3.4577503e-02
   9.7243265e-02
  -1.8462370e-01
  -3.3983944e-01
  -2.8297975e-01
   1.1920943e-01
   9.3744448e-02
  -3.0810527e-01
  -5.1006268e-02
   7.8865159e-02
   2.8691321e-01
  -9.6532191e-02
   1.6487373e-01
  -7.4715564e-02
   4.4121052e-01
   1.8061248e-01
   9.0312980e-02
  -1.8602640e-02
  -2.9696667e-02
   5.5920005e-01
   3.3007400e-03
   4.9460641e-01
  -2.1805885e-03
   3.9197654e-01
  -6.9797752e-02
  -2.8060401e-01
   7.8731277e-02
   2.8929371e-02
   2.7951501e-01
  -2.1414227e-01
   1.8138548e-01
  -1.1659664e-01
   3.1050559e-01
   2.3023670e-01
   1.4826386e-01
  -2.2957034e-01
  -3.5918664e-01
  -2.2796941e-01
   1.0527884e-02
  -3.1407935e-01
   2.1263318e-01
   2.4259579e-01
  -1.7139232e-01
  -6.6599737e-02
  -4.0797220e-01
  -1.9236422e-01
  -6.5344442e-02
  -2.3648421e-01
   6.8178292e-02
   2.1783000e-01
  -1.0648864e-02
  -2.4930540e-01
   2.1993027e-01
  -3.7502867e-01
   2.3411170e-02
   2.3379510e-01
  -7.3524633e-02
   2.3969252e-01
  -2.6458512e-01
  -7.1106975e-02
   2.0783470e-01
  -2.8472038e-01
   1.2874971e-01
  -3.4317060e-01
  -1.4357399e-01
   1.8269788e-01
   1.2301861e-01
   2.9155280e-03
   1.0671781e-01
  -2.0552012e-01
  -1.0997113e-02
  -2.0695109e-01
   2.8253386e-01
  -3.7459604e-01
   1.0291122e-02
  -4.2123019e-01
  -1.3343561e-01
  -1.1445234e-01
  -1.2087612e-02
  -3.2805034e-01
   8.6552878e-02
   3.1258618e-01
   5.0073274e-01
   1.1117732e+00
   8.8025369e-01
  -5.5723899e-01
  -5.1712634e-01
  -8.9340431e-01
  -1.4243928e-01
  -6.6561203e-02
   2.6168579e-02
   1.5238700e-01
  -3.6618090e-01
  -4.7570477e-01
   1.0854724e-01
  -1.3376449e-01
  -3.5894761e-01
  -3.4266194e-01
  -3.0440929e-01
  -2.5741900e-01
   3.3575724e-01
  -1.3979746e-01
   1.2931673e-01
   3.2654664e-01
  -7.8650840e-02
   3.0401788e-01
   1.0055350e-01
   7.7420395e-02
   3.3765937e-01
   1.5427764e-01
  -1.6464778e-02
   5.6997671e-01
   2.3277626e-01
   2.0043806e-01
   4.2515316e-02
  -8.6909776e-02
   3.2402501e-01
  -1.2249219e-01
   5.2076583e-02
   4.1025889e-02
   3.1927988e-01
  -1.7129714e-01
  -1.6399758e-01
  -1.2800715e-01
   4.0108344e-02
  -8.5267498e-02
  -1.8296446e-01
   1.1332538e-01
  -1.7709398e-01
   2.9304038e-01
  -3.1696290e-02
  -7.0559388e-02
   2.7454451e-02
   2.9126922e-02
   1.6489528e-01
   2.0154839e-01
  -2.9301518e-01
  -3.5257615e-01
  -1.9580578e-01
   5.1469210e-03
  -1.5488310e-01
   2.1787994e-01
  -3.9509056e-01
   2.6081114e-01
   3.6870650e-02
   7.0049718e-03
  -3.1147996e-01
  -4.1970268e-01
  -5.4270773e-02
  -3.9901291e-01
   4.3073783e-02
  -2.7517316e-01
  -2.6636912e-01
   2.5101510e-01
  -3.1767661e-01
   1.2391961e-01
  -4.1197014e-01
  -2.0358844e-01
   2.5696472e-01
  -1.6810686e-01
  -2.4468711e-01
   1.2016446e-01
   2.3674671e-01
   4.6209724e-01
   3.9313044e-01
  -2.8277571e-01
   1.5165925e-01
   2.1623278e-01
  -1.8279377e-01
  -4.7243245e-01
  -4.6149514e-01
  -3.7984892e-01
  -1.0199317e-02
  -2.2990430e-01
   4.9392915e-01
   8.2857758e-01
   1.7330403e+00
  -3.5075778e-02
  -3.3309876e-01
  -6.7824314e-01
  -1.8718231e-01
  -5.3715332e-01
   1.3368337e-01
  -2.5340314e-01
  -4.4814872e-01
   1.9115345e-01
  -2.0382966e-02
  -1.6056822e-01
  -4.2491491e-02
  -1.6203809e-01
  -2.7266136e-01
  -3.3851109e-01
  -2.7260220e-01
  -6.3632433e-02
   2.9377052e-01
   1.8803818e-02
   1.9643886e-01
   7.6464677e-02
   4.0603722e-01
   4.1142209e-01
  -2.2091012e-02
  -1.0137203e-02
   3.6722280e-01
   1.6436927e-01
  -2.4545357e-02
   3.0666767e-01
   2.7012040e-01
   4.2813920e-01
   1.5429223e-01
   4.9741900e-02
   6.3718692e-02
   3.3747081e-01
   2.9978011e-03
  -1.4090879e-01
   3.2301202e-01
   3.2440720e-01
   2.5731020e-01
   1.5410624e-01
   1.1031564e-01
   1.6335389e-01
  -7.4858580e-02
  -8.5257478e-02
  -2.2747615e-01
   2.2714100e-01
   2.7444876e-01
   2.6426840e-01
  -3.3049002e-01
  -3.6941727e-01
  -3.1039323e-01
  -6.0768255e-02
  -3.9117634e-01
  -4.1289797e-01
  -3.6082398e-01
  -4.7954887e-03
  -4.0574015e-01
   2.5670301e-02
  -4.6926074e-02
  -3.8831525e-01
  -2.8090153e-01
  -2.0416348e-01
  -3.8128293e-01
   3.2586047e-02
  -1.3802412e-01
  -3.5267187e-01
   1.3719580e-01
   3.0158316e-01
  -1.3212528e-01
   3.8759765e-01
  -8.7998229e-02
  -3.3793004e-01
  -3.8493493e-02
   2.4939827e-01
  -6.4700475e-03
  -2.8167338e-01
  -6.7532352e-02
  -2.1307416e-01
  -2.9117695e-01
   1.6465258e-01
   3.6514487e-01
   1.3985268e+00
   1.7953649e+00
  -1.9548367e-01
  -6.1495703e-01
  -8.6944573e-01
  -7.6556252e-01
  -1.4136692e-01
  -2.1174406e-01
  -4.4521924e-01
  -1.5352398e-01
  -2.6982211e-01
   8.3424364e-02
  -4.6368942e-01
  -3.2319016e-01
   1.9142300e-01
  -2.7236521e-01
  -1.7761722e-01
  -1.0922542e-01
   1.9005418e-01
   9.4759124e-02
   2.8426692e-01
  -1.7467428e-01
  -5.0503759e-02
   2.8065117e-01
  -6.0295582e-02
   4.2507362e-01
   3.2237818e-01
   4.6891098e-01
   4.7416327e-02
   4.3155156e-01
   3.6492766e-01
   4.3691776e-01
   4.5469425e-02
  -1.6376205e-01
  -1.0787791e-01
  -1.7547005e-01
  -6.5595310e-02
  -1.5668066e-01
   4.2920039e-02
   2.4717858e-01
  -2.1916719e-01
  -2.4378039e-01
   2.4459776e-01
   2.4835161e-01
  -1.8804114e-01
  -3.3646725e-01
   1.5161457e-01
  -3.0847838e-01
  -7.6962727e-02
  -1.1188158e-01
  -2.1498706e-02
  -3.3608563e-01
  -1.0669103e-02
  -3.5251203e-01
  -3.5426439e-01
  -1.4124866e-01
  -2.5523041e-01
   1.8587485e-01
  -8.8349885e-02
  -1.3829561e-01
  -2.2398831e-01
  -7.6281723e-02
   2.1061022e-01
  -2.1183099e-01
  -2.7428433e-01
   3.0611040e-01
   2.1360481e-01
  -2.5423955e-02
   2.6533916e-01
  -5.0973456e-02
   1.6635522e-01
  -2.1716526e-01
   8.9287197e-02
  -4.7444309e-02
  -6.8750305e-02
  -6.1178448e-01
   2.3153512e-02
   6.8407928e-01
   1.5696909e+00
   1.1604750e+00
  -4.7380139e-01
  -8.1852661e-01
  -3.9607582e-01
  -7.0154247e-01
  -4.3744109e-01
   1.7549498e-02
  -4.9072955e-01
  -4.0015705e-01
  -2.7571250e-01
   1.4832503e-01
  -4.0091088e-02
  -4.1387145e-01
  -2.1702391e-01
  -2.7005959e-01
  -1.7717241e-01
  -3.3130283e-01
   2.4144811e-01
   2.4999476e-01
   2.4981003e-01
   3.4590216e-01
   3.9518072e-01
  -3.5603103e-02
   1.8403212e-01
  -4.5453755e-02
  -5.9086862e-02
  -4.5101417e-02
   4.2448968e-02
  -4.6949901e-03
   1.9084580e-01
   8.3217757e-02
   1.3566883e-01
  -1.5111336e-01
   5.4978945e-02
   2.9598182e-02
  -3.2988677e-01
  -3.6498447e-01
  -3.9755363e-01
  -3.0728212e-01
  -6.3080170e-02
   1.7895805e-01
  -1.9551159e-01
  -2.7618762e-01
  -3.5941641e-01
   2.5720701e-01
  -2.3366365e-01
   2.7782928e-02
  -2.7532855e-01
  -2.6077983e-01
   9.0388818e-02
  -3.2079733e-01
   1.1622060e-01
  -3.8421021e-01
   2.2585841e-01
   1.2254523e-02
  -2.6111999e-01
   1.3206296e-01
  -4.6390211e-01
   9.7656864e-02
   2.1732388e-01
   8.8212255e-02
   1.6952185e-01
   1.9695004e-02
   3.2622050e-01
  -2.1000062e-01
  -1.8455990e-01
  -3.1598376e-01
  -2.9744719e-01
   1.8957368e-01
   1.9602555e-02
  -4.7390185e-01
  -1.1249221e-01
  -5.3805722e-01
  -5.0128586e-01
  -2.7066513e-01
   7.1675336e-01
   1.7145873e+00
   1.7223630e+00
  -1.8917335e-01
  -6.8838579e-01
  -7.7274233e-01
  -7.8341806e-03
   1.7337053e-01
  -4.6588567e-01
  -2.7914461e-01
  -3.1219086e-01
  -3.3885403e-01
   3.1915231e-02
  -2.2446189e-01
  -3.5718791e-01
  -2.9448460e-01
   2.0535478e-01
   2.7205287e-01
  -1.2772829e-02
  -3.1713862e-01
  -1.6485923e-02
  -1.7454040e-01
   4.3629350e-01
   1.9126244e-02
   5.0055726e-01
   5.3163419e-01
   4.7787246e-01
   5.8617465e-01
  -3.8323736e-02
   6.1150211e-01
  -6.2323156e-02
   4.9593424e-02
   1.3168200e-01
   4.1940021e-01
   8.2679301e-02
  -1.5322076e-01
  -2.8464165e-01
  -2.8136556e-01
  -2.1183172e-01
  -8.6277392e-02
  -1.1786758e-01
  -9.7327456e-02
   4.0072488e-02
  -7.7236221e-02
  -3.8658366e-01
  -3.7101037e-01
  -1.2086069e-01
   2.9561506e-01
  -3.5061762e-02
   2.3367093e-01
  -1.8808869e-01
  -2.1663843e-01
   1.8528169e-01
   1.1540093e-01
  -1.6891152e-01
   1.9262818e-01
  -1.4203207e-01
  -1.2853541e-01
  -1.6754817e-01
  -1.3635297e-01
   1.1797190e-02
  -3.8309524e-01
   4.8422222e-02
  -3.6398774e-01
  -7.2429900e-02
  -1.7323906e-01
   9.4166673e-02
  -1.5566728e-01
   4.4358240e-01
  -1.6089335e-01
  -1.4172699e-01
   1.1196939e-01
  -1.9601596e-01
  -3.1396880e-01
  -4.0774658e-01
   1.1963194e-01
  -3.5237084e-01
  -3.8895799e-01
  -1.1288973e-01
  -5.8199282e-01
  -1.4028207e-01
   9.5670906e-01
   1.5567795e+00
   5.5670258e-01
  -4.3483767e-01
  -4.2372930e-01
  -3.7865828e-01
  -1.2576733e-01
  -1.5335577e-01
   9.6220441e-02
  -2.0255791e-01
  -2.2663313e-01
  -8.8248887e-02
  -2.5647202e-01
  -4.0422455e-01
  -1.7464244e-01
  -2.7449128e-01
   5.5258639e-02
   1.5365936e-01
  -4.8976163e-02
   1.0974307e-01
  -8.9647738e-02
   7.4633446e-02
   2.0319113e-02
   4.0901893e-01
   3.9521289e-01
  -8.9821667e-03
  -3.7214434e-02
   2.9749558e-01
   4.5076870e-01
   4.9501353e-01
   3.8946409e-01
   4.5133583e-01
  -1.1100264e-01
  -1.3913211e-01
   2.9737307e-01
  -2.6628745e-02
  -2.3906512e-01
   1.2741758e-01
   2.3848685e-01
   1.7360788e-01
   2.1008063e-01
  -3.3676025e-03
  -2.3828765e-01
  -3.6881804e-03
   2.0531168e-01
  -2.3426179e-01
   1.2170811e-01
   2.1386782e-01
  -7.5114970e-02
  -8.7647180e-02
   2.2976975e-01
   1.4839812e-02
   1.3447063e-01
  -1.4892186e-01
  -2.1502396e-01
  -1.7483575e-01
   4.8278642e-02
  -3.1485517e-01
  -1.1200925e-01
  -3.6546044e-01
  -3.5705608e-01
   2.1303676e-01
  -1.3339629e-02
  -1.4294102e-01
   7.0433136e-02
   1.5752464e-02
   1.4669885e-01
   1.9972899e-01
   1.9761251e-01
   1.3646115e-01
   8.9760728e-02
  -2.6789525e-01
   2.3158490e-01
  -1.1716698e-01
  -2.3110122e-01
  -5.4449971e-01
  -2.0770155e-01
   1.2459201e-01
  -3.6225480e-01
  -7.4611992e-02
  -2.0823822e-01
   1.0785314e+00
   1.7660036e+00
   7.2853638e-01
  -7.0147723e-01
  -3.8391567e-01
  -6.1425404e-01
  -5.2616755e-01
  -1.1387217e-01
  -9.9840253e-02
  -1.9180157e-01
  -8.2580491e-02
   1.6421096e-02
  -1.9432255e-01
  -5.1670304e-02
  -1.4700326e-01
  -3.3471087e-01
  -1.5003267e-01
   7.7219247e-03
  -2.6603061e-01
  -2.6795239e-01
  -9.7379979e-02
   2.0877136e-01
   1.0492955e-01
   1.7945056e-01
  -9.9065229e-02
  -5.8475708e-02
   1.5651375e-01
   1.4524981e-01
   6.0947177e-01
   4.4616474e-01
   3.4257171e-01
   4.5800574e-01
   1.4832295e-01
   8.3419692e-03
   3.2363350e-01
  -1.6296672e-01
  -2.4019771e-01
   1.0602270e-01
  -1.8106724e-01
  -2.4967774e-01
  -1.7637595e-01
  -1.5590388e-01
  -3.5586697e-01
  -2.0994360e-01
   9.4082454e-02
   3.1716592e-01
  -2.0569585e-01
   5.3420858e-02
   3.0528064e-01
  -6.0480119e-02
  -1.9428114e-01
   1.2967882e-02
  -3.4632029e-02
  -3.2916046e-01
  -2.3446436e-02
  -3.2065507e-01
  -2.4901578e-01
  -7.4901671e-02
   1.3936369e-01
   5.7973969e-02
  -8.9426481e-02
   1.8578693e-01
   2.2050169e-01
  -1.2635122e-01
  -2.3868185e-01
   1.8845697e-01
  -8.7570260e-02
   2.0413103e-01
  -2.1573345e-01
  -2.3991910e-01
  -2.1797913e-01
   1.8187211e-01
   1.3646056e-01
   6.8270362e-03
   2.2323061e-01
  -6.6078525e-02
   1.0421983e-01
   1.2565555e-01
   3.4325993e-02
  -5.1710675e-01
   1.3133205e-01
   7.1577782e-02
  -1.1285835e-01
  -2.1733213e-01
   1.1990811e+00
   1.3698698e+00
   3.7976118e-01
  -4.7279834e-01
  -6.8385876e-01
  -2.1377459e-01
   1.3781007e-02
  -1.9630620e-01
   9.4470880e-02
  -2.3708551e-01
  -4.7558624e-01
  -2.7979564e-01
  -2.6585323e-01
  -1.5209309e-01
  -8.8306489e-02
   5.9718958e-02
  -1.5289207e-01
   2.6900758e-01
  -1.5726873e-01
   1.9177689e-01
   3.3135132e-01
   1.4418678e-01
   4.1955231e-01
  -1.5532185e-01
   2.3471555e-01
  -1.3292705e-01
  -1.2790620e-02
   2.0524390e-01
   7.8412109e-02
   2.8471964e-01
   1.0312433e-01
   3.2104408e-01
   2.2094238e-01
  -9.2566131e-02
  -2.5515876e-01
  -3.2764156e-01
  -2.0764901e-01
  -2.1157418e-02
   5.6528196e-02
  -2.7905679e-01
  -2.7687792e-01
  -1.3507342e-01
  -3.1850139e-01
  -6.8844667e-02
  -1.6737663e-01
   6.1413269e-02
  -2.1617121e-01
   7.7977631e-02
  -2.2457211e-01
  -3.2877997e-01
   2.2785209e-01
  -2.9232284e-02
  -1.3265111e-01
  -3.2768689e-01
  -3.3078907e-02
  -3.5710360e-01
  -2.4978428e-01
  -3.5294211e-01
  -1.8023200e-01
  -2.1249053e-01
   2.2012968e-01
   1.7682166e-01
   1.0803114e-01
  -3.9787077e-01
  -1.4614190e-01
  -1.8229295e-01
  -1.4594855e-01
   2.6176790e-01
  -1.8847339e-01
  -2.4899653e-01
   2.6502037e-01
  -1.7863120e-01
   4.7696942e-01
   3.0115098e-01
   3.4241713e-01
   1.5102407e-01
   7.6245234e-04
   1.7732911e-01
  -1.5121073e-01
  -2.1287836e-01
  -3.7787110e-01
  -4.3782715e-01
  -1.7508583e-01
   3.6761899e-01
   1.3963331e+00
   1.4292338e+00
  -5.8843433e-03
  -7.5830373e-01
  -1.0508756e+00
  -4.4287925e-01
  -3.2026825e-01
   7.6154057e-02
  -1.8643079e-01
   1.1354180e-01
  -3.2803930e-01
   6.7850693e-02
   1.3079687e-01
  -1.4603262e-01
  -1.7798224e-02
  -3.5081036e-01
  -2.0959197e-01
   5.5639985e-02
   1.4405557e-02
   3.0983782e-01
   1.7430492e-01
   9.9756784e-02
   2.3436185e-01
  -1.2954766e-01
  -1.1143496e-01
   4.0109464e-01
   1.0662970e-01
  -3.8456545e-02
   5.3627983e-01
  -7.1947615e-02
  -7.7440190e-02
   2.1647407e-01
   7.7439002e-02
  -2.4584188e-01
  -2.7521049e-01
  -1.8301300e-01
  -2.6088909e-01
   6.6230170e-02
  -2.6510081e-02
  -2.9800196e-01
  -9.5197810e-02
   2.7131495e-01
   2.1083814e-02
   1.3145053e-01
   3.2667205e-01
   2.1746207e-02
  -3.7786991e-02
  -1.7884412e-02
   4.9401050e-02
   1.2002196e-01
   1.5436783e-02
   8.0810079e-02
  -1.1034954e-01
   1.7567241e-02
  -3.0631319e-01
   1.9353327e-01
  -2.5881692e-01
  -2.0046109e-01
  -2.2765795e-01
   2.3743175e-01
  -3.1539591e-01
  -3.9149490e-01
   3.5652951e-02
  -3.7278286e-01
  -2.8042954e-01
   2.9938479e-02
   1.4679767e-01
   3.0836926e-01
   1.3184906e-01
   4.3871737e-01
   2.8317004e-01
   2.6449895e-01
   5.5653722e-02
  -3.8688679e-01
  -3.2097221e-01
  -2.2289272e-01
  -1.5419612e-01
  -2.8540935e-01
  -8.2198964e-02
  -1.8002812e-01
   1.3643172e-01
   3.5224430e-01
   1.3321803e+00
   1.2078725e+00
   1.8403878e-01
  -5.3474147e-01
  -4.3008413e-01
  -4.3452924e-01
  -1.3931386e-02
   1.1158221e-01
  -2.4367752e-01
  -4.5359656e-01
  -1.0741529e-01
  -2.5621240e-01
   1.2458198e-01
  -3.0963792e-01
  -2.7887851e-01
  -2.8698354e-02
  -3.2600035e-01
  -1.9146129e-01
   1.1918684e-01
  -2.4224688e-01
   1.8014127e-01
   3.8783031e-01
   1.5847997e-01
   6.9455408e-02
   4.1849827e-01
   5.7816846e-01
   3.6711865e-01
   2.5472369e-01
   2.4172731e-01
   2.0467442e-02
   1.6019401e-01
   1.5168386e-01
   3.6279202e-01
   2.2151911e-01
   9.9232872e-02
  -2.9715846e-01
  -2.8676697e-01
   2.7912499e-02
  -6.6839775e-02
   1.8145349e-03
  -3.4339142e-01
   2.5500326e-02
   6.5284512e-02
  -3.2650835e-02
  -2.6763111e-01
   1.4306522e-01
   1.7544717e-01
  -1.8604152e-01
  -4.4674188e-02
  -2.4840529e-01
  -2.7012076e-01
   1.5108796e-01
  -3.6832870e-01
  -2.9789628e-01
   2.5234731e-01
  -5.2436693e-02
  -2.6750482e-02
   2.2001516e-01
  -3.6497256e-01
   1.5011367e-01
   1.7401543e-01
  -3.1517426e-01
  -3.2313325e-01
  -2.2712156e-02
  -3.2875952e-01
  -3.3341500e-01
  -9.4266167e-02
  -4.8337444e-02
  -2.3213308e-01
   2.9363765e-01
   1.7282597e-01
   3.9017114e-01
  -2.0107530e-01
   2.4829337e-01
   2.0613161e-02
  -2.4565205e-02
  -2.9007981e-01
  -2.4266217e-01
  -4.7061680e-01
   3.8648889e-02
  -1.3342774e-01
   5.7275984e-01
   1.5047511e+00
   1.4549503e+00
  -9.4192780e-03
  -9.3562883e-01
  -4.2805366e-01
  -6.6352586e-01
   1.8491634e-01
   2.3220563e-02
  -4.9484068e-01
   1.1226389e-01
   1.1988748e-01
   8.3156192e-03
   1.6449446e-01
  -1.2404882e-01
  -1.5990908e-01
  -3.4688488e-01
   3.1805299e-01
   2.4388090e-01
  -3.2995082e-01
   1.8098371e-01
   1.9341605e-01
   4.3269129e-02
   1.5845786e-01
   1.1678970e-01
   2.0143993e-01
  -7.6268112e-02
   2.0270047e-01
  -5.9362961e-03
  -4.9822115e-02
   2.8928555e-01
   2.9790093e-01
   3.4718258e-01
  -5.0156507e-02
   2.2338126e-01
   1.8427705e-01
   1.7635165e-02
   2.7493871e-01
   1.8056964e-01
  -1.3597885e-02
   1.6305501e-01
   1.1193129e-01
   3.2967855e-01
  -2.7305041e-01
   2.5852628e-01
   4.7498649e-02
  -2.7089412e-01
   3.0923059e-01
   2.1797665e-01
  -3.2137835e-01
  -1.8534921e-01
  -1.0825901e-01
   3.8766137e-02
   2.2837217e-01
  -1.3439382e-01
   8.3050112e-02
   2.5961233e-01
  -1.3016958e-01
   1.4767361e-02
   2.0108853e-01
   1.7510858e-01
  -3.2509885e-01
  -2.8958171e-01
  -1.0350401e-02
   1.0252043e-01
  -2.6223229e-01
  -1.6638345e-01
  -2.0623178e-01
  -1.2552735e-01
  -3.2542340e-01
   7.6924175e-02
  -3.8141546e-01
   1.6318859e-01
  -3.7253408e-01
   1.7206586e-01
   2.6907448e-01
  -1.4385834e-02
   1.6872769e-01
   5.3129028e-02
   2.9136682e-01
   7.7608600e-02
   5.3098970e-02
   2.0521946e-01
  -1.8010847e-01
   7.7952799e-02
  -1.9949915e-01
  -1.0900455e-01
  -1.5648443e-01
  -7.9837386e-02
   9.7738935e-02
   1.0691090e+00
   1.5374468e+00
   1.0883356e+00
  -6.8438907e-01
  -3.9074385e-01
  -3.2069323e-01
  -1.7911533e-01
  -4.2502311e-01
   7.1345852e-02
   1.2673140e-02
  -1.9283422e-01
  -2.9878052e-01
  -2.4970469e-01
  -5.2812772e-02
   5.2550786e-02
   1.8970734e-01
  -2.5239889e-01
  -2.5273867e-02
  -5.2465183e-02
  -1.6220994e-01
   2.3526628e-01
   2.8433834e-01
   3.5115925e-02
   3.2638061e-02
   1.7664761e-01
   5.9954142e-02
   6.2532258e-04
   1.7178561e-01
   9.9819233e-02
   7.0135450e-02
   3.3476376e-01
   5.2484662e-01
  -5.4565130e-02
   4.1166184e-01
   1.2811831e-01
  -1.6953847e-01
   1.7296691e-01
   1.2110562e-01
  -1.0767215e-01
   2.5098069e-02
  -3.2766559e-01
  -3.2440895e-01
   2.1396703e-01
  -2.6453142e-01
   1.3216493e-01
   1.9251798e-01
   1.9904576e-01
   1.3162833e-01
   2.9757653e-01
  -1.6138614e-01
   3.1707478e-01
  -1.8869162e-03
   6.9261942e-02
   2.6174415e-01
  -2.4275394e-01
   2.8206267e-01
  -2.8556489e-01
   2.4374213e-01
   2.5487201e-01
  -2.8748969e-01
  -3.7198313e-01
  -2.2225409e-01
  -3.7793204e-02
   1.1763054e-01
   7.6315986e-03
  -1.9873266e-01
  -1.1165321e-01
   1.6994536e-01
   1.8292907e-02
  -2.3921637e-01
  -6.4825905e-02
   1.9188035e-01
  -2.9799284e-01
   1.4404783e-01
  -2.9816568e-01
  -3.6691543e-01
  -4.0307964e-01
  -4.3287690e-01
   2.5221280e-01
   1.8162628e-01
  -3.9022024e-01
   2.9144851e-02
   2.5863493e-01
  -2.5081371e-01
  -2.9115898e-01
  -6.3794544e-02
   1.9822823e-01
   1.9650096e-01
   1.2095957e-01
   3.8396255e-01
  -3.3277591e-01
  -2.2944192e-02
  -2.7887736e-01
  -1.5174507e-01
  -1.2224970e-01
  -8.5480844e-02
  -3.8014632e-01
  -3.0686899e-01
  -3.0576802e-01
   2.7047540e-01
   1.1688328e+00
   1.8165469e+00
  -3.8493535e-02
  -5.4344077e-01
  -4.3195364e-01
  -4.5796354e-01
  -2.1761509e-01
  -2.0515841e-02
  -3.1862890e-01
   1.6921790e-01
  -3.7997335e-01
  -1.2693916e-01
  -4.3599847e-01
  -2.4131329e-01
  -1.8976095e-01
   2.5882561e-01
  -2.3486114e-01
  -2.7460214e-02
  -2.3727311e-02
   2.6459386e-01
  -2.5776385e-01
   2.9696076e-01
   1.5855313e-01
  -1.6816650e-01
   1.9969531e-01
   1.7193675e-01
   2.0895545e-01
   3.3192264e-01
   2.3875917e-01
   3.9930180e-01
   5.3569475e-01
   4.0452757e-01
   1.2640849e-01
  -1.5678109e-01
   3.9349763e-01
  -3.0136589e-02
   2.2124563e-01
   2.3265539e-01
   2.2296540e-01
   7.7055506e-02
  -1.1750911e-01
   1.8884354e-01
  -6.4697482e-03
   2.0913426e-02
  -1.3933750e-02
  -5.3188212e-02
  -2.2678769e-01
  -1.5361038e-01
   2.4936987e-01
   2.4169883e-01
  -3.7289309e-02
   3.9397141e-02
   1.0738112e-01
  -2.9698355e-01
   3.1374719e-03
  -2.5349996e-01
  -3.6066360e-01
  -3.5526883e-01
   2.5290630e-01
  -2.5870933e-02
  -3.0991879e-01
   4.2614591e-02
  -1.3524890e-03
  -1.8136636e-01
   5.0500904e-02
  -1.3706065e-01
  -2.6633897e-01
  -2.3642545e-01
  -1.5953691e-01
  -3.9154912e-01
  -1.9229405e-01
  -2.3570589e-02
  -4.4091972e-02
  -3.7822967e-01
  -3.7642177e-02
  -8.1899603e-02
   6.8354609e-02
   2.0526831e-01
  -1.6698053e-01
   3.8805599e-01
   1.8954294e-01
   4.6016226e-01
   1.9696476e-01
  -2.1757141e-01
  -3.5347260e-01
  -3.7446446e-01
  -3.8254619e-01
  -1.5060140e-01
  -4.4662964e-01
  -4.6880641e-01
  -1.5661267e-01
   2.0189791e-01
   2.9002788e-02
   8.2461872e-01
   1.3195694e+00
  -2.2505727e-01
  -5.4211949e-01
  -6.9261430e-01
  -4.0791652e-01
  -9.6399481e-02
   1.0815001e-01
  -4.0965912e-01
  -2.9182132e-01
  -4.3136057e-01
  -3.8952683e-01
  -4.0242425e-01
  -3.3043936e-01
   1.0807415e-01
   2.1337398e-01
  -7.2097900e-03
   2.2624236e-01
  -1.7487040e-01
  -2.5138866e-02
  -2.7196200e-02
   2.4223348e-01
   4.3606648e-01
  -3.7479625e-02
   3.5710266e-01
   2.1388695e-01
   4.1205216e-01
   4.7160865e-01
   4.6234720e-02
   5.2278554e-01
  -1.2599359e-01
   2.0805997e-01
   4.2331660e-01
  -1.4310618e-01
   7.6699410e-03
  -9.1172723e-02
   6.2313673e-02
   2.4389101e-01
  -7.5822938e-02
   8.4945555e-02
   3.2560636e-01
   2.1992944e-01
   2.2438159e-01
   3.1356618e-01
  -2.2181619e-01
   9.4299821e-02
   1.3991755e-01
   1.9368596e-01
   8.6712606e-02
  -1.5895885e-01
  -3.7071545e-01
  -3.2086772e-01
  -2.0640056e-01
   1.7676518e-01
   2.2594686e-01
  -1.0003694e-01
   2.7197544e-01
  -3.9634785e-01
   1.7161529e-01
  -6.0010211e-02
   2.5782103e-01
   1.8405506e-01
  -3.2206544e-01
  -1.9763731e-01
  -3.8939523e-01
  -1.2411878e-01
  -1.4123449e-01
  -2.0630963e-01
   2.0007882e-01
  -1.0381058e-01
   4.7166182e-02
   1.5248950e-02
   2.0724699e-01
  -1.5437526e-01
   2.0846901e-01
   1.7397119e-02
  -1.2604028e-01
   3.7945436e-01
   3.8561022e-01
  -2.8311666e-01
  -1.9180894e-02
   3.3896289e-02
  -4.4300934e-01
  -5.2629553e-01
  -2.3623163e-01
  -4.4915151e-01
   9.5121717e-02
   3.6810728e-01
   1.0331838e+00
   1.6436308e+00
   8.6012506e-01
  -9.3267161e-02
  -8.1008147e-01
  -9.2012584e-01
  -3.6958377e-01
  -1.4990885e-01
  -1.2688655e-01
   4.0398826e-02
  -6.4013421e-02
   1.7290949e-01
  -1.8147081e-02
   1.6518624e-01
  -3.4411959e-01
   1.5448376e-01
   2.9432305e-01
  -1.9812977e-01
   2.9891541e-01
   1.5345743e-01
   2.0754619e-01
   2.0505270e-01
   3.3270324e-01
   1.7073889e-01
   3.4824738e-01
   1.9748793e-01
   4.9992824e-01
  -4.8472834e-02
   4.8155765e-01
  -7.4679864e-03
   4.0991619e-01
   1.6153266e-01
   2.1924458e-01
   2.9827670e-02
   1.6361549e-02
   2.2605226e-01
   3.2358981e-01
   2.6015917e-01
   7.6812258e-02
   3.3743603e-01
   9.8896703e-02
   1.8908516e-01
   2.4895269e-01
  -2.1640409e-01
  -2.8911336e-01
   2.1478139e-01
  -6.7871009e-02
   1.1396731e-01
   2.6572365e-01
  -1.7242730e-01
  -1.7645989e-01
  -3.0212560e-02
  -3.8192860e-02
   3.8280322e-02
   7.6543872e-03
  -3.1717775e-01
  -1.3246409e-01
  -1.7666122e-01
  -3.5881476e-01
  -2.6458449e-01
   2.5603785e-01
   2.0151270e-01
   1.3855081e-01
  -3.4539762e-01
  -4.9762566e-02
  -4.1231316e-01
   3.3587447e-02
   1.3559641e-01
   1.9798147e-01
  -3.4195647e-01
  -1.6659656e-01
   2.3591025e-01
   2.6059894e-02
   1.1942192e-01
   4.6475162e-01
   4.8680365e-01
  -2.8659340e-01
  -1.1407336e-01
  -7.4722676e-04
   4.3472436e-02
   1.7900922e-01
  -6.3399836e-02
  -3.4871207e-01
   1.4579657e-01
   7.0369500e-02
   3.5197158e-02
   9.9321972e-01
   1.4807680e+00
   1.0507261e+00
  -3.9748977e-01
  -5.0782178e-01
  -3.3471130e-01
  -4.0480012e-01
  -2.0714460e-02
   1.4385477e-01
   1.2788895e-01
  -4.2298336e-01
  -4.5666091e-01
  -6.9313388e-02
  -4.4349685e-01
  -2.8617013e-01
  -4.1052390e-01
   1.6958988e-01
  -2.5141941e-01
   3.2145784e-01
   2.1915840e-01
   2.7160147e-01
   1.8235074e-02
  -1.4847289e-02
   2.7620333e-01
   4.5596097e-01
   4.6025506e-01
   4.9294374e-01
   4.7551073e-01
   2.1460586e-01
   2.2697836e-01
  -9.9266230e-02
   1.5988673e-01
   2.1688871e-01
  -1.7794157e-01
  -3.4351018e-02
  -1.3015440e-01
   7.1126238e-02
  -4.5226242e-02
  -7.4429871e-02
  -3.1705090e-01
  -1.8321307e-01
  -1.9907537e-01
   1.4636656e-01
   9.6195513e-02
  -2.7657306e-01
  -2.7954661e-01
  -3.2042197e-01
   1.2966806e-01
   1.9304996e-02
   1.9405983e-01
  -3.3071287e-01
  -2.2540696e-01
  -3.6711318e-01
   4.9587731e-02
  -2.2579439e-01
   8.1391210e-02
  -3.2879314e-01
  -4.8201908e-02
  -3.8287692e-01
  -3.6408602e-01
  -8.6745437e-02
   7.2452454e-02
  -2.4057515e-02
  -3.0155812e-01
  -6.8494313e-03
   5.4405079e-02
  -2.2961993e-01
   1.2835205e-01
  -3.0038430e-01
  -2.0608600e-01
   8.6310978e-02
   2.8776304e-01
   3.0806786e-01
   2.5805889e-01
  -2.0339851e-01
   3.5617243e-01
   1.8973383e-01
  -1.1047010e-01
   1.2641465e-01
  -7.7922572e-02
  -4.0034408e-01
  -4.3208869e-01
   4.7787361e-02
  -3.8135130e-01
  -8.2393814e-02
   7.0512139e-01
   1.6244543e+00
   6.6984745e-01
  -1.4819676e-01
  -6.8967837e-01
  -3.7505253e-01
  -4.0001715e-01
  -4.4166954e-01
   8.6638292e-02
  -1.0771826e-02
  -8.7492779e-02
   2.8796524e-02
   4.2569511e-02
  -8.6438323e-02
   1.2063858e-01
   4.4242188e-02
  -1.5424763e-02
   1.0014828e-01
   3.2362869e-01
   1.1442660e-01
   2.6339240e-01
  -1.3272427e-01
   2.9103280e-01
  -3.9893650e-02
   1.4151487e-01
   4.2361152e-01
   1.5997331e-01
  -7.8423526e-02
   4.0731739e-02
  -5.9996015e-02
   3.4241424e-01
   2.6231035e-02
   1.0391876e-01
  -1.1471463e-01
   3.3911911e-01
  -7.1290123e-02
  -1.9641349e-01
   2.0677081e-01
  -3.3787101e-01
  -3.3215432e-01
   5.8730452e-03
   3.0335692e-01
   7.1550226e-02
   6.5823709e-02
   8.5706353e-02
   2.9035140e-01
  -2.1151993e-01
   2.4443307e-01
  -3.5082461e-01
   1.8342782e-01
  -3.7218575e-01
  -1.0947027e-01
   6.2665901e-03
  -2.7224330e-01
   1.3226385e-01
  -2.6230825e-01
  -3.0791054e-01
   9.6892455e-03
   2.3373951e-01
   3.8095463e-02
  -2.9457114e-01
   2.1451286e-01
  -1.7386227e-01
  -4.0551240e-01
  -2.8585843e-01
   2.0482058e-01
   1.6329165e-01
  -2.2271932e-02
  -5.7449611e-02
  -4.3923796e-01
  -3.2619652e-01
  -1.9975132e-01
   2.6877374e-01
  -3.3670003e-02
   3.2652828e-02
  -1.6755025e-02
  -7.2433212e-02
  -3.0275370e-02
  -2.5531558e-01
  -1.7765162e-02
  -7.9633999e-02
  -5.5094392e-02
  -3.0238173e-01
   1.2975337e-01
  -3.9938300e-01
   1.8790199e-02
   2.1815927e-01
   1.4613296e+00
   1.6203888e+00
   2.1032419e-01
  -8.3804129e-01
  -3.6598947e-01
  -2.1963046e-01
  -1.9590227e-01
  -2.3953751e-01
  -2.4394351e-01
  -2.0472479e-01
  -2.2378482e-01
  -4.3910129e-01
  -1.5180346e-01
  -3.0431259e-02
  -2.1165109e-01
  -1.3034937e-01
  -3.0929174e-01
  -3.6183901e-02
  -1.3531276e-01
  -3.0360221e-01
   3.4409100e-01
  -1.0278255e-01
   2.7355101e-01
  -7.1926788e-02
   5.3202111e-01
   2.1186365e-01
   4.9398574e-01
   3.7854376e-01
   2.2802575e-01
   2.9504997e-01
   9.9502168e-02
   1.8335019e-01
   3.4284063e-01
  -6.3426850e-02
  -9.0121482e-02
  -8.1293680e-02
   2.7318101e-01
  -2.7967659e-01
  -2.0532372e-01
  -1.4306863e-01
  -1.0393432e-01
   1.6372325e-01
   2.7542769e-01
  -3.1365167e-01
  -2.9500857e-01
  -3.4485976e-01
  -2.2966191e-01
  -3.5159750e-01
  -5.1863905e-02
  -2.0963217e-01
   2.5394181e-01
   1.0608355e-01
  -6.2947986e-02
  -3.5034802e-01
  -3.8953723e-02
   5.6235258e-02
   1.0398832e-02
  -1.2131396e-01
  -3.4744165e-01
   1.5163011e-01
  -2.5548679e-01
  -6.8575121e-02
   1.2789287e-01
  -6.8118979e-02
  -2.2311000e-01
   1.7334864e-01
  -3.9982398e-01
   6.6529780e-02
   1.7561579e-01
  -1.2016964e-01
  -1.2644522e-01
  -3.4233011e-01
   2.5325644e-01
   2.5837827e-01
   2.2040494e-02
  -4.5046427e-02
  -1.5139658e-01
   4.4779770e-01
  -2.4109321e-01
  -1.9952812e-01
  -1.5815728e-01
  -3.5486938e-01
  -4.0882420e-01
  -2.9441395e-02
  -2.1240428e-01
  -2.9835468e-01
  -3.7426307e-01
  -2.5939576e-01
  -1.3518431e-01
   7.9197837e-01
   1.3947800e+00
   7.8105402e-01
  -3.6254797e-01
  -8.1152382e-01
  -3.8383726e-01
  -3.2851326e-01
  -3.3522054e-01
  -3.2806911e-01
  -3.1043975e-02
  -1.2112142e-01
  -4.3127239e-01
  -4.3090832e-01
  -2.7889018e-01
  -1.2705081e-01
  -2.1599762e-01
   8.5137495e-02
   2.9470568e-01
   1.9676856e-01
   1.2029731e-01
   2.3750703e-01
   2.5777162e-01
   1.8022181e-01
   3.4613943e-01
   1.0474178e-01
   2.6870308e-01
   2.8203012e-02
   4.8141538e-02
  -1.2646718e-01
   1.0311677e-01
  -5.0742974e-02
   1.1307430e-01
  -8.7852155e-02
   3.4030624e-01
   2.4243967e-01
  -2.3079079e-01
   2.4944316e-01
  -1.8102187e-01
  -2.6514106e-01
   1.1394317e-01
   3.1820328e-01
   2.3019512e-01
   9.1276948e-02
  -1.2021187e-01
  -1.5584240e-01
  -5.5936199e-02
  -1.2479312e-01
   2.4443143e-01
  -3.7069185e-01
   1.1751446e-01
  -1.4835582e-01
  -1.7651143e-01
   5.8670490e-02
   2.3980239e-01
   2.1515165e-01
   2.8802553e-01
  -3.6398128e-01
  -3.2426696e-01
   2.6209776e-01
  -3.5183040e-01
   5.0311061e-02
   2.3027536e-01
  -3.2572854e-01
   2.0409096e-01
  -4.1116663e-01
  -1.9511987e-01
  -2.6818574e-01
   2.6919480e-01
   1.5761853e-01
   1.2615812e-01
   1.8519465e-01
   1.2607330e-01
   1.4055754e-01
  -2.0523471e-01
   1.1492190e-01
   1.1514600e-01
  -1.1757142e-01
  -6.3839437e-02
   4.3604594e-01
  -1.6242431e-01
   2.5245041e-01
  -1.6886113e-01
   1.9690455e-01
  -2.4223742e-01
  -4.4525039e-01
  -8.1345928e-02
  -4.6232965e-01
   3.4343263e-02
   8.2047583e-02
  -3.1124101e-01
   2.2112416e-02
   6.1474736e-01
   1.4771102e+00
   5.7693757e-01
  -3.8344147e-01
  -8.0749613e-01
  -3.8471475e-01
   7.1758787e-03
  -4.4192681e-01
  -8.9469497e-02
   9.4259854e-02
   7.8433747e-03
  -3.0992082e-01
  -2.1009442e-01
  -6.8192148e-02
  -3.8269912e-01
  -1.3768612e-01
  -2.2374202e-01
  -3.7718511e-02
   2.1924661e-01
  -7.0506434e-02
   6.7584701e-02
  -2.1378148e-01
   3.9136663e-01
  -7.9658584e-02
   7.7445166e-02
   2.8719619e-01
   3.7086131e-01
  -4.8851411e-02
   2.1216583e-01
   5.5673668e-01
   3.4032658e-01
  -1.2860289e-01
  -1.6468433e-01
   1.0380889e-01
   4.2617508e-02
   2.5758996e-02
  -1.9887621e-01
  -7.2540447e-02
   2.8150536e-01
   1.7104653e-01
  -5.8260264e-02
   2.8514837e-01
  -2.7898519e-01
  -2.2307162e-01
   3.0761106e-01
  -2.8940566e-01
  -9.8373351e-02
  -1.6254260e-01
  -3.3383920e-01
  -2.5877440e-01
  -1.0276034e-01
  -1.8995141e-01
   1.0149696e-01
  -2.4220078e-01
   2.4663783e-01
  -2.0117646e-01
  -3.0155918e-01
  -2.6144106e-02
   1.3338058e-01
  -1.0928939e-01
   2.6707311e-01
  -1.1438931e-01
  -2.0689118e-01
  -2.5244276e-01
   2.3257768e-01
  -2.8398333e-01
  -1.4807357e-01
  -2.8283281e-01
  -2.4098273e-01
  -1.5709096e-01
   2.6341519e-01
   1.9772128e-01
  -3.9701178e-02
  -4.7564929e-02
  -3.8459833e-01
  -1.6354774e-02
   2.5872062e-01
  -1.0682603e-02
  -4.6122501e-02
  -1.4687722e-01
   2.7656547e-01
   4.3919000e-01
   1.3965097e-01
  -9.0065684e-02
   5.3360925e-02
  -1.2287813e-01
  -1.3461563e-02
  -1.0639080e-01
  -1.7242667e-01
   8.6629033e-02
  -9.1259494e-02
   3.4224662e-01
   1.1468602e+00
   1.7076644e+00
   9.0763692e-02
  -4.1151398e-01
  -6.8853570e-01
  -5.9555739e-01
  -2.7572689e-01
  -5.3681665e-02
  -3.4620420e-01
   1.8030252e-01
   1.9796966e-01
  -2.9234034e-01
  -2.2309668e-01
   2.4251127e-01
   1.2727937e-01
   1.3144508e-01
   5.7658212e-02
   1.8301555e-01
  -3.6334724e-02
   2.4642949e-01
  -2.0633568e-01
   7.9287689e-02
   2.5615188e-01
  -5.1297553e-02
   1.7733023e-01
   7.7546778e-02
   3.9623287e-01
   3.1460254e-01
   5.4800143e-01
   5.0077493e-01
   2.2839065e-01
  -1.3386967e-01
   7.4677389e-02
  -1.2340848e-01
   4.0694183e-01
   4.9270336e-02
   2.8469789e-01
   1.1377607e-01
  -2.8622487e-02
  -2.9330339e-01
   3.2247456e-01
   8.4077987e-02
  -2.4079779e-01
  -8.6143055e-02
   2.5275346e-01
   7.3097441e-03
  -4.4267517e-03
  -8.5283236e-02
  -2.7137830e-01
  -2.2053844e-01
  -2.1042191e-01
  -4.9343343e-02
  -3.8113838e-02
  -1.2939802e-01
   2.0897623e-01
  -2.1639977e-01
   1.9838776e-02
  -2.3285264e-01
  -2.6132398e-01
  -1.8427182e-01
   1.2914226e-01
  -6.7751411e-02
  -3.6955471e-02
  -2.7820078e-01
  -3.7863762e-01
   6.2511425e-03
   2.3109711e-01
  -3.7879431e-01
  -3.1849371e-01
  -4.4343025e-01
   1.2681238e-01
  -1.0806034e-01
  -7.7028667e-02
   2.9598467e-01
  -3.7996758e-02
   8.5896604e-02
   3.0930620e-01
  -1.7466482e-01
   4.6591106e-02
  -2.9171191e-02
   2.0911620e-01
  -4.9916661e-02
  -4.6780932e-01
  -1.2018894e-01
  -4.3507413e-01
  -2.6568213e-01
  -2.2234986e-01
   2.6264772e-01
   7.5632695e-01
   1.5013381e+00
   7.2821750e-01
  -1.8751808e-01
  -4.5536416e-01
  -8.3364091e-01
  -2.0580009e-01
  -4.5340779e-01
  -2.2213746e-01
   8.8437311e-03
  -4.1970432e-01
   9.1962771e-02
  -1.8533495e-02
   1.8364825e-01
   2.7483506e-04
  -1.1977476e-01
   5.8290682e-02
  -2.7511759e-02
  -2.8437128e-01
   1.2612615e-01
   3.6518306e-01
   6.8463505e-02
   1.8696350e-01
   2.0903788e-01
  -1.7316782e-02
   3.1790315e-01
  -3.5413797e-02
   4.0197599e-01
   1.9136896e-02
  -1.1613496e-02
   3.6802693e-01
   1.4332450e-02
  -8.6063358e-02
   1.9304392e-01
  -1.0447676e-01
  -1.2591533e-01
   2.6074968e-01
  -6.6805421e-02
  -2.7679496e-01
  -2.1430199e-01
  -1.0085071e-01
   2.6217399e-01
   6.4839158e-02
  -1.6932072e-01
  -9.9100654e-02
   2.7127805e-01
   2.7037141e-01
  -5.1433492e-02
  -1.8680398e-01
   7.6708489e-03
  -2.5980668e-01
   2.1179158e-01
  -2.3761665e-01
  -2.8232631e-01
  -3.8629399e-01
  -1.8429839e-01
  -3.1384813e-02
   1.6217004e-01
   1.3797328e-01
  -3.9791425e-01
  -1.5994612e-01
  -7.0691088e-02
  -1.0376343e-01
  -3.9080034e-01
   1.9012777e-03
  -2.0376956e-02
  -2.2583381e-01
  -1.2003377e-01
  -3.3935688e-01
  -2.2019546e-01
   9.7962338e-02
  -4.0028823e-01
  -2.5634999e-01
   2.6738796e-01
  -1.3213787e-01
  -3.2305059e-01
   1.7535973e-01
  -4.1303373e-01
  -3.7377554e-01
  -2.5940147e-01
   1.1177246e-01
   2.6881674e-01
  -1.6860566e-01
   1.5130939e-01
   3.3315007e-01
   4.6425086e-01
   3.5702073e-01
  -5.4384588e-02
   2.7087362e-01
  -7.4172997e-02
  -4.0123425e-01
  -3.1312539e-01
  -6.3223404e-02
   1.3883849e-01
   1.1317246e-01
  -1.2064183e-01
   4.9421190e-01
   1.0178128e+00
   1.3187227e+00
   4.5677879e-02
  -9.6764236e-01
  -3.6984092e-01
  -4.3721753e-01
  -4.3503402e-01
  -4.1354581e-01
  -3.2062016e-01
  -3.4389367e-01
   1.2741803e-01
   4.9923693e-02
  -2.1369986e-01
  -1.9565387e-01
  -8.5943589e-03
  -4.5415489e-02
  -1.4651099e-01
   2.3327780e-01
  -1.4904919e-01
   3.3375813e-01
  -1.7116113e-02
   2.1314579e-01
  -3.2493145e-02
  -1.8042959e-01
   4.9342921e-01
   2.1877923e-01
   3.2982131e-01
   2.8027449e-01
   3.8561128e-01
   5.4192548e-01
   3.5936876e-01
   4.2012483e-01
   4.8928999e-01
   2.9162228e-01
  -1.6777128e-01
  -7.1586321e-02
  -3.0484973e-01
   1.5118568e-01
   3.3112985e-01
   1.7033296e-01
   1.8072794e-01
  -2.1777256e-01
  -8.6213317e-02
   6.7254614e-02
  -1.3038309e-02
   2.3860735e-01
   2.2081080e-01
  -1.2323378e-01
  -3.1820852e-02
   1.0677145e-01
   4.6658531e-02
  -2.8592889e-01
  -3.6135575e-01
  -2.9742408e-01
  -2.2870678e-01
  -7.5603756e-02
  -1.5827912e-02
   2.9827299e-01
   1.0714303e-01
   2.8104024e-01
  -3.6738354e-01
   3.5811930e-02
   2.6726733e-01
  -2.2105383e-01
   2.5958522e-01
   2.1656398e-01
  -2.7874611e-01
   9.8766063e-02
  -2.9259714e-01
  -3.4640126e-01
  -1.9012113e-01
  -1.8086404e-01
  -1.3572641e-01
  -2.2625778e-01
  -1.9526166e-01
   7.7795857e-02
   2.4125271e-01
  -3.6854786e-01
  -2.1932592e-01
  -1.2688574e-02
   1.5990421e-01
   1.1750678e-01
  -3.9932889e-02
  -3.8960653e-01
   1.0856024e-01
   2.7929195e-01
  -2.6417480e-01
   7.5359414e-03
   1.0635874e-02
   7.2817576e-02
  -1.0575036e-01
   3.0161202e-01
  -2.7904693e-01
  -3.4279469e-01
   9.5375647e-02
  -1.0480573e-01
  -2.5628634e-01
  -2.9073743e-01
  -1.0239884e-01
   2.8316386e-01
   1.0621908e+00
   1.7607229e+00
   2.1681170e-03
  -5.8294718e-01
  -1.0186878e+00
  -3.1233637e-01
   6.6246572e-03
  -1.2461184e-01
  -4.8869333e-01
  -4.9970526e-01
   2.0727818e-01
  -3.5384699e-01
   1.0633676e-01
  -2.0733481e-01
  -1.0212291e-01
  -3.3796847e-01
   1.6188316e-01
  -6.2589507e-02
  -1.3202828e-01
  -7.4119736e-02
   4.7705227e-02
   2.6857372e-02
   2.4917579e-01
   2.6754654e-01
  -1.7519031e-01
  -1.0970719e-01
   1.6743863e-01
   3.9427540e-01
   4.3673478e-01
   2.9197163e-01
   1.1041328e-01
   4.6124870e-01
  -1.4351221e-02
  -1.9371668e-01
   2.3900583e-01
   2.4175827e-01
   3.0882799e-01
   2.0177781e-01
   3.2281841e-01
   1.5013260e-02
   3.3184655e-01
   3.4473183e-01
   1.5470136e-02
   2.3675207e-01
   2.7861855e-01
   3.0186011e-01
  -2.9652258e-02
   1.6141310e-01
   2.7715710e-01
   1.8749050e-01
   2.6627437e-01
  -8.7129891e-02
   1.9372025e-01
   2.9644679e-01
  -1.5125240e-01
  -2.9046311e-01
   1.7621579e-01
   5.9400905e-03
   2.7312814e-01
  -7.2609476e-02
  -2.2753405e-01
   6.4756889e-02
   2.3014425e-01
   2.6952353e-02
  -1.9425088e-01
  -8.1641649e-02
  -1.2978126e-01
  -3.6624226e-01
  -1.0628333e-02
   1.8031084e-01
  -3.2684497e-02
  -2.1037025e-01
   2.0790582e-01
   1.0601441e-01
   1.3806872e-01
  -2.0722192e-02
  -3.4945284e-02
  -2.0520466e-01
   8.3600781e-03
   3.6928088e-01
   3.8389079e-02
   2.4934159e-01
   1.9601178e-01
   2.9756454e-01
  -1.5700430e-01
  -2.0605929e-01
  -3.0651264e-01
  -1.3930696e-02
   7.9022143e-02
   7.3239749e-03
   9.9897848e-03
  -4.7683452e-01
  -1.5538756e-01
   4.5764273e-01
   1.1555292e+00
   1.3094231e+00
   1.6046675e-01
  -6.6728725e-01
  -5.6605322e-01
  -5.0640819e-01
  -5.8906804e-01
  -2.1877773e-01
  -1.6761726e-01
   4.9052452e-02
   1.2099824e-01
  -7.7275493e-02
  -3.4554817e-01
  -1.9680631e-02
   1.0333496e-01
  -1.1013375e-01
  -2.1744556e-01
  -1.7423101e-01
   3.7522863e-01
   2.6529459e-02
   2.7442509e-01
   1.6726679e-01
   3.5248918e-01
   4.4388302e-01
   2.9026474e-01
   2.7935314e-01
   3.0759433e-01
  -1.0650681e-01
   5.1673765e-01
   4.9910151e-01
   3.5140141e-01
   5.7284320e-02
   4.0481924e-02
  -1.7663939e-01
   9.3885858e-02
   1.3114413e-01
   1.9901197e-01
  -3.2994825e-01
  -2.3116361e-01
  -3.5696283e-02
  -9.6703494e-02
   3.2144593e-01
   2.9253535e-01
   3.1064806e-01
  -2.1042311e-01
  -2.4320949e-01
   3.0232397e-02
   4.0043434e-02
   1.2902752e-01
  -1.8093058e-01
  -1.1430406e-01
  -1.5417992e-01
  -3.1470487e-01
  -3.5914455e-01
  -3.0739656e-02
  -2.0258673e-01
   2.6992330e-01
   8.6495677e-02
  -1.9529027e-02
   7.7059020e-02
   2.4859146e-01
  -1.2610661e-01
   2.2410964e-01
   1.9311788e-01
   1.3466000e-01
  -3.9642928e-01
  -1.8850360e-01
  -2.2797227e-01
  -4.6120672e-03
  -3.5467134e-01
  -1.2316794e-01
   2.6534719e-01
  -1.4480849e-01
  -2.5434609e-01
   5.6461428e-01
   2.1359987e-01
  -1.1906341e-01
  -4.3263310e-02
   1.2956550e-01
  -6.9407635e-02
  -2.2316243e-01
  -1.4252077e-01
  -4.0330083e-01
   2.6150297e-02
  -1.6659099e-02
   3.1065003e-02
   8.9353528e-01
   1.2180608e+00
   9.6797341e-01
  -4.4219399e-01
  -7.4864870e-01
  -5.5737508e-01
  -6.0319704e-01
  -4.8611279e-01
  -2.7401958e-01
  -1.9783921e-01
   3.5353927e-02
  -3.9362649e-01
   1.6605829e-01
  -3.1576323e-01
  -1.8501448e-01
  -1.2407088e-01
   2.7588034e-01
  -2.7608877e-01
   2.6759356e-01
   5.5880145e-02
  -7.4955665e-02
   3.6989192e-01
   1.3447820e-01
   1.2902248e-01
   3.7058245e-01
   9.7572769e-02
   5.5470209e-01
   2.5886213e-01
   4.2887379e-01
   3.4108471e-01
   1.8639686e-02
   4.0923605e-01
   4.0082692e-01
  -2.1593545e-01
   1.4493512e-01
  -1.2870384e-01
   1.5769484e-01
  -1.8489637e-02
   1.8966285e-01
  -1.7875973e-02
   6.3258068e-02
  -2.0597886e-01
  -1.2018652e-01
  -1.8693058e-01
   2.2613184e-01
   2.9658272e-01
   3.6535123e-02
   2.3459544e-01
   2.8163190e-01
   4.2885373e-02
   1.3417296e-01
  -1.3658789e-01
  -9.7344898e-02
  -3.8527535e-01
   1.2204997e-01
  -1.9925030e-01
   1.5449072e-01
   2.4426505e-01
  -9.5973232e-02
  -1.9554478e-01
  -4.0194024e-01
   1.8485394e-01
   3.8478119e-02
  -1.5334148e-01
   2.0767632e-01
   6.1674587e-02
   5.4762315e-02
   1.5340112e-02
   2.8393938e-01
  -2.5287809e-01
   1.5003435e-01
   1.2711602e-02
  -1.6871485e-01
  -2.6926532e-01
   2.4099428e-01
  -4.2553919e-01
   1.2587140e-01
  -6.0077182e-02
  -5.5159324e-01
  -5.4658372e-01
  -2.6960215e-03
   2.1014421e-03
   9.5570306e-01
   1.1694374e+00
   1.1791724e+00
  -4.1599439e-01
  -4.1620917e-01
  -3.1847166e-01
  -3.0223055e-01
   1.2388820e-01
  -6.5157045e-02
   4.1067013e-02
  -9.7947276e-02
  -3.4076683e-01
   1.5437383e-01
  -1.0960051e-01
   2.6428342e-01
  -1.6086993e-01
  -2.6072162e-01
   1.4096269e-01
  -1.3059503e-01
  -2.4269335e-01
   3.2702392e-01
   2.2018603e-01
   4.4293010e-01
   1.0701712e-01
   4.2103960e-01
   4.2338988e-01
   1.4728299e-01
   5.3966990e-01
   1.0182108e-01
   3.0501303e-02
   2.0910376e-01
   4.9721208e-03
  -2.0365456e-01
   1.7074001e-01
   1.4785950e-01
   1.1723550e-01
   1.1633262e-01
   2.2545477e-01
  -3.4887987e-01
   8.6542637e-02
   4.7963208e-03
   9.3150343e-02
   2.4189651e-01
  -1.9319640e-01
  -3.2701177e-01
  -1.7547898e-01
   1.5742566e-01
  -5.6162124e-02
  -9.9077081e-02
  -3.0211601e-01
  -2.3480613e-01
   4.8717108e-02
   1.5164618e-01
   5.3864693e-02
  -4.6422775e-02
   2.4584375e-01
  -1.2216471e-01
  -1.1465272e-01
  -2.5822822e-01
   3.5720207e-03
  -1.6006004e-01
  -2.5002580e-01
  -4.1195100e-02
   8.3821290e-02
   2.2462550e-01
   7.1368679e-02
  -2.0012803e-02
  -9.5651957e-02
  -2.4256906e-01
  -1.9213690e-01
   1.8024433e-01
   4.7932753e-01
   2.0482807e-01
   2.9388981e-01
  -2.0360049e-01
   7.8480594e-02
  -2.2945897e-01
  -5.3722939e-01
   1.9174327e-02
  -2.6213191e-01
  -4.8290537e-01
   5.9558794e-02
  -1.6645623e-01
   5.3155215e-01
   1.1478852e+00
   1.6224955e+00
  -2.1842726e-01
  -8.2312505e-01
  -6.4382010e-01
  -4.4134172e-01
  -3.1269024e-01
   1.7490075e-02
  -3.2673266e-01
   1.7289401e-01
   1.6648588e-01
  -2.9302716e-01
  -3.0870471e-01
  -2.7851351e-01
  -2.5210461e-01
  -2.3729654e-01
  -7.5224327e-02
   2.1314812e-01
   1.0203037e-01
  -1.7428792e-01
   2.9065701e-01
   4.4494394e-01
  -9.0978286e-02
   4.2712157e-01
   3.2021365e-02
   1.7685839e-01
   1.2567993e-01
   2.0382705e-01
   1.3419660e-01
  -6.0721852e-02
   3.2482208e-01
  -1.5544891e-01
  -9.9302880e-02
   7.4395849e-02
  -1.3720648e-01
  -6.6277254e-02
   4.7895017e-02
  -3.4059856e-01
   2.4567560e-01
   2.2080942e-01
  -3.2045691e-01
  -2.4580826e-01
  -3.6562104e-01
   4.7989805e-02
   1.4050340e-01
   1.6124579e-01
  -2.3022009e-01
   2.9131709e-01
  -3.0927719e-02
  -3.4127233e-01
  -2.6507856e-01
  -1.8321563e-01
   2.0133754e-01
  -3.7009562e-01
  -1.6121481e-01
   3.8517527e-02
   1.6951860e-01
  -3.6376389e-01
   1.2857794e-01
  -3.8419454e-01
  -2.1250191e-01
  -2.3950033e-01
   2.0441767e-01
   1.3826967e-02
  -8.8447784e-02
   8.0620314e-02
  -3.6151378e-01
   1.9914292e-01
  -7.9314527e-02
  -4.3115425e-01
  -3.1099246e-01
  -1.8137176e-01
  -2.8279112e-01
   1.4744513e-01
  -2.2526248e-01
   1.8496445e-01
   1.0148645e-01
  -1.4002980e-01
   2.3344199e-02
  -1.8380884e-01
   1.3396242e-01
  -5.3075531e-01
  -1.4482874e-01
  -2.7691538e-01
  -2.8504747e-01
  -5.5516398e-01
   2.6107545e-01
   9.7819462e-01
   1.7108051e+00
   6.7893727e-01
  -6.4240740e-01
  -9.4013534e-01
  -6.2314266e-01
  -8.6299583e-02
  -4.2224463e-01
  -2.1407403e-01
  -4.7855256e-01
  -4.4028589e-01
   7.2142718e-03
   1.1206348e-01
   1.7713764e-01
   2.0848659e-01
   2.5675324e-02
  -2.7795434e-01
  -3.2650444e-01
   1.9928068e-01
   1.9950466e-01
   1.4815046e-01
   2.4036767e-01
  -8.2889948e-02
   3.6649636e-01
   5.3719982e-01
   1.6410091e-01
   4.7004413e-02
   2.1608541e-01
   3.7828070e-01
   4.9666305e-01
   5.5672583e-01
  -5.9887416e-02
   3.0265168e-01
  -1.7894110e-01
  -1.9250614e-01
  -2.1316115e-01
   2.0538779e-02
   2.2467590e-03
  -4.2881618e-02
   2.0872383e-01
   5.2567728e-03
   1.0319061e-01
  -1.6636888e-03
  -1.3211910e-01
  -1.7383884e-01
   3.3159190e-01
  -1.8994779e-01
   1.9295859e-01
  -4.2051755e-02
  -1.6045031e-01
   3.6397952e-02
  -3.9517410e-01
  -3.5594644e-01
   2.3901748e-01
   2.0931459e-01
   1.7207599e-01
   2.1957227e-01
   5.5410355e-02
   1.1394102e-01
   4.0567562e-02
  -2.9080047e-01
  -1.0332821e-01
   1.1722072e-01
  -4.5865282e-01
  -4.6095682e-02
  -1.4172619e-01
  -4.0910884e-01
  -1.3062811e-01
   1.4271558e-01
  -3.2220326e-02
   6.9115840e-02
   2.1994618e-01
  -1.7228299e-01
   1.9219401e-01
   2.9102876e-01
   1.8300136e-02
   2.0509176e-01
   2.3686148e-01
   3.3308020e-02
  -2.3169048e-01
  -2.1179847e-01
  -1.9163120e-01
  -5.2429580e-01
  -2.4530713e-02
  -4.9651361e-01
  -2.2782094e-01
  -2.0005445e-01
   1.3210399e-01
   7.0536392e-01
   1.0817480e+00
   7.2877007e-01
  -5.4374124e-01
  -6.0401571e-01
  -7.1753743e-01
  -2.2845631e-01
  -1.9276978e-01
  -2.3718445e-01
  -2.7117991e-01
  -4.2287206e-01
  -2.2071133e-01
  -1.9579092e-01
  -1.1774118e-01
   1.2193369e-01
   6.3975587e-02
   1.9485307e-01
  -2.1402232e-02
   2.4852339e-01
  -4.1909173e-03
  -1.1460598e-01
   1.6563895e-01
   1.6891388e-01
   1.7880953e-01
   1.0031801e-01
   1.4932366e-01
  -3.9014616e-02
   8.4524515e-02
  -9.4873751e-02
   5.2789086e-01
   2.9148098e-01
   4.8429199e-01
   8.9577388e-02
   3.5126941e-02
   8.7753883e-02
   9.7381607e-02
   2.4395175e-02
   6.1046739e-02
  -2.6702482e-01
   1.8311859e-01
   1.0080045e-01
  -1.2423709e-01
  -1.4118254e-01
  -1.6302463e-01
  -2.5032848e-01
  -1.3595803e-01
   2.2312384e-01
  -1.8649697e-01
  -3.2153133e-01
  -2.8690980e-02
  -3.0449406e-01
  -1.1816511e-01
  -3.3115005e-01
   1.0938366e-01
  -1.6535996e-01
  -1.3586580e-02
   4.3158660e-02
   3.6750808e-02
   7.5599697e-02
  -2.1922686e-01
  -3.5517533e-01
   8.4049936e-03
  -2.4349577e-01
   1.8597625e-01
  -2.1481172e-01
   4.5539848e-02
  -2.0875338e-01
  -1.8958872e-01
  -3.0356321e-02
   1.7862983e-01
  -2.4982981e-01
   2.3987812e-01
   1.6211029e-01
  -3.1687720e-01
   2.7051573e-01
   2.5690053e-01
   1.9870249e-01
  -1.3598721e-02
  -9.2040456e-02
  -3.3587405e-01
  -7.9189348e-02
  -4.9966953e-02
  -1.3463231e-01
  -2.6852395e-01
   1.3429082e-01
  -3.1262604e-01
   8.3399806e-02
  -1.6891349e-01
   1.0087677e+00
   1.8054964e+00
   4.8709497e-01
  -5.5288341e-01
  -6.0142928e-01
  -2.8254174e-01
   2.1004927e-02
  -2.8929251e-01
  -9.5134896e-02
   9.8686249e-02
  -5.7588978e-02
  -1.2923116e-01
   1.4240135e-01
   2.3658839e-02
  -3.4556322e-01
  -5.3630219e-02
  -3.5658333e-01
  -6.0173432e-02
   2.9002280e-01
  -2.8873126e-01
   3.8163356e-01
  -1.2373375e-01
   5.3935702e-02
  -2.6332642e-02
  -6.8089909e-02
   1.9291865e-01
   1.0429266e-01
  -2.4399253e-02
   2.6924432e-01
   7.2323851e-02
   1.2972093e-01
   2.4078360e-01
   1.8864684e-01
   4.9891751e-02
  -1.5150234e-02
  -5.3535355e-02
  -1.4349015e-01
  -2.2906133e-01
  -2.7590118e-01
  -3.5901684e-01
   1.7216158e-01
  -6.5313686e-03
   1.5547717e-01
   1.8277056e-01
  -1.6673578e-01
  -2.1946461e-01
  -3.0509585e-01
  -6.7237978e-02
   1.1650289e-01
   3.1912445e-01
   1.1107912e-02
  -3.5933526e-01
   1.7504140e-02
  -2.1013699e-01
  -3.0464026e-02
  -9.9675375e-02
  -3.3295620e-01
  -1.4904115e-01
   1.1038302e-01
   2.1785780e-01
   5.4889339e-02
   2.5943697e-01
  -3.2668452e-01
   3.7489720e-02
  -1.3920503e-01
  -3.6358787e-02
  -2.9115459e-01
  -1.6425158e-01
  -1.9183042e-01
  -1.8046556e-01
  -1.5887208e-01
  -3.5924504e-01
  -7.9153169e-02
   1.1683897e-01
  -1.9454510e-01
  -6.6024662e-02
  -2.8238321e-01
   8.7861671e-02
   6.0824972e-02
   1.3693676e-02
   4.3934425e-01
  -4.1895132e-03
  -1.8303301e-04
  -2.1833776e-01
   1.6481416e-01
  -2.9861683e-01
  -1.7249852e-01
  -1.7822058e-01
   9.6368931e-02
   1.1632912e-01
  -5.3589776e-01
   4.7519144e-01
   1.0826281e+00
   1.3008437e+00
   2.3827681e-01
  -5.9807894e-01
  -7.3132310e-01
  -2.6929824e-01
   1.0102554e-01
  -7.4181895e-02
   1.7413638e-01
   2.8582906e-02
  -1.0172218e-01
   1.0007770e-01
   1.2122165e-01
  -3.5250867e-01
   9.2506918e-02
   1.2062728e-02
  -1.1164695e-01
   2.1389039e-01
  -3.0317621e-01
  -2.7265585e-01
   3.6867157e-01
   7.2109302e-03
   1.5758347e-01
   4.4754974e-01
   8.3024669e-02
   3.2972695e-01
   3.9915275e-01
   6.6109520e-02
   2.9881782e-01
   2.2366287e-01
   3.1218518e-01
   2.3579303e-01
   1.7784944e-01
  -4.4766577e-02
   3.3531131e-01
   3.4058013e-01
   2.1934650e-01
   3.1335945e-01
  -3.0355545e-03
  -2.7099175e-01
   8.5164107e-02
  -2.3137982e-01
   2.2985508e-01
   2.9999715e-01
  -2.7758717e-01
  -1.7749274e-01
   1.8932382e-01
  -5.0799669e-02
  -2.5235607e-02
  -3.6933868e-01
   1.5850370e-02
   1.0723516e-02
   9.4183958e-02
  -3.5137611e-01
   1.4601653e-01
  -2.8955350e-01
  -3.3350607e-02
   2.2689085e-01
   2.6023953e-01
   2.5270538e-01
  -2.2666180e-01
   8.2546885e-02
  -2.8055142e-01
   1.6796650e-01
   1.5490914e-02
  -3.6345597e-01
  -2.8674637e-02
   2.3944180e-01
   1.5141085e-01
   9.2174829e-02
   5.7134869e-02
  -2.6736345e-01
  -4.1704095e-01
  -9.6520773e-02
  -3.0783833e-01
  -2.2686602e-01
  -4.6170912e-02
   1.8128075e-01
   5.2120808e-01
  -1.9244694e-02
   9.1975076e-02
   2.9148486e-01
  -2.6333632e-01
   8.2474813e-02
  -4.5792426e-01
   6.8535887e-02
  -1.7443367e-01
   1.4688849e-01
  -5.5727064e-02
   1.8579905e-01
   3.3182083e-01
   1.1189296e+00
   7.7225843e-01
  -5.0903171e-01
  -5.9027059e-01
  -3.8414453e-01
  -4.3962655e-01
  -4.1970333e-01
  -3.8877401e-02
   7.1308797e-02
  -1.8465391e-02
  -3.7737863e-01
  -1.8982118e-01
   1.9854059e-02
  -7.8852435e-02
   2.6463876e-01
  -2.2259271e-01
   2.2683735e-01
  -8.3371592e-02
  -2.1935876e-01
  -2.3211592e-01
   2.4217658e-01
   3.0447463e-02
   6.6361410e-02
   5.6521635e-02
