   2.1246694e-01
   1.6556769e-02
   3.3573347e-02
  -3.3679697e-01
  -2.4991404e-01
  -3.8894116e-01
  -1.0311855e-01
  -1.8559337e-01
  -2.1299404e-01
  -7.1483612e-02
  -2.8670637e-01
   2.3485430e-01
   2.4442689e-01
  -4.5758537e-03
  -4.1793398e-01
   1.9870450e-01
   6.9725039e-02
  -3.8650431e-01
   2.8436889e-01
  -2.1288016e-01
   1.3855385e-01
  -1.0978462e-01
   1.3298976e-02
  -1.0328320e-01
  -3.5782523e-02
  -2.7967850e-01
   6.8771326e-02
  -1.8383902e-01
   2.4716683e-02
   1.8933488e-01
   1.3142996e-01
   3.1707666e-01
   3.6562047e-01
   3.1397083e-01
   1.3065038e-01
  -3.7643033e-01
  -4.9086975e-01
  -3.8917738e-01
  -1.0181710e-01
  -1.0620963e-01
  -1.9555796e-01
   4.5979030e-01
   1.4382051e+00
   1.3818624e+00
  -7.5048843e-02
  -9.4760698e-01
  -6.3529879e-01
  -1.8066401e-01
  -2.9025767e-01
   5.1374721e-02
  -1.7399175e-01
  -9.4422785e-02
   2.4057951e-01
   2.8246033e-02
   2.4959505e-01
  -3.6722464e-01
   2.1936379e-01
  -3.4829065e-01
  -2.6277815e-01
   9.7507120e-02
  -4.4827904e-02
  -5.5100401e-02
   3.1328499e-01
  -1.2407724e-02
   2.5672204e-01
   1.6997937e-01
   9.1513631e-02
   4.9449196e-01
   3.2626680e-01
  -2.8645749e-02
   1.1851669e-01
   2.1810826e-02
   2.6451357e-01
  -2.6138335e-02
   1.4215641e-01
   2.6315536e-01
   3.6619557e-01
   2.1645586e-01
  -2.7105436e-01
   3.1477022e-01
   3.4022948e-01
   8.3175002e-02
   3.2854409e-01
  -1.1014709e-01
   2.8934804e-01
  -3.4114671e-01
  -3.0067299e-03
  -2.4297052e-01
  -1.3060848e-01
  -2.3104022e-01
   5.9131716e-02
   8.9522364e-02
  -1.3142947e-01
  -3.4801805e-01
  -3.5248595e-01
  -3.5130322e-01
  -3.3524541e-01
  -3.9423104e-01
   2.7147126e-01
   9.9353539e-02
   1.1676564e-01
  -4.0648490e-01
  -3.4238027e-01
  -2.4669240e-01
   2.1584578e-01
   2.5603783e-01
   2.7154662e-01
  -1.9145486e-01
  -2.1949390e-01
  -2.9793236e-01
   9.6298138e-02
   7.3807253e-02
  -2.9647970e-01
  -1.3484971e-01
  -3.9659114e-01
   1.5424931e-02
   1.1842287e-01
   1.6582345e-01
   1.2663999e-01
  -8.9562587e-02
  -9.4432507e-02
  -2.6403558e-01
   2.8590126e-01
  -9.3379706e-02
  -1.9825630e-01
  -8.4878686e-02
   3.3263138e-01
   9.9772793e-02
  -1.4214807e-01
   7.2853250e-02
  -4.9531943e-02
  -1.1614174e-01
  -2.0911171e-01
   1.1128962e-01
   1.2952430e-01
   5.0939124e-02
   9.7782100e-01
   1.5467559e+00
   4.5321716e-02
  -8.9591916e-01
  -6.4870480e-01
  -4.2702630e-01
  -3.9459834e-01
   1.6132076e-01
  -2.2848143e-01
   9.0471221e-02
  -4.3637822e-01
  -1.8353209e-01
  -4.0716720e-01
  -2.3534364e-01
   2.4727351e-01
   1.9833779e-01
  -2.4824314e-01
   2.0503299e-02
  -1.1809307e-01
   3.3259469e-01
  -1.9734493e-01
   3.2201600e-01
  -5.7030797e-02
   3.4997451e-01
   4.8487280e-02
   3.6178529e-02
   5.7574438e-02
   5.8505101e-01
   1.7877559e-01
   3.3628317e-01
  -1.0072457e-01
  -1.5771884e-02
   3.9426816e-01
   6.4079320e-02
  -2.8077632e-01
   1.2637699e-02
   2.4412876e-01
   2.6769796e-01
  -1.3677015e-01
  -1.7721906e-01
   2.3978169e-01
  -3.0796666e-02
   2.2837227e-02
  -2.0219209e-01
  -2.2587570e-01
   3.0293883e-01
   3.6319941e-01
  -6.3568938e-02
   2.3724101e-01
   3.1641358e-01
   2.6936221e-01
   2.2247670e-01
   1.0217079e-01
  -2.6577118e-01
  -2.1964311e-01
  -8.6829867e-02
  -3.7318641e-01
  -2.0257779e-01
   3.0058066e-01
  -1.6654664e-01
   1.4894309e-02
   3.2931925e-02
   2.4094383e-01
  -1.0780537e-01
   1.1000284e-01
  -2.4169425e-01
  -3.4073789e-01
   5.1034769e-02
   9.7077826e-02
  -1.9668681e-01
   5.7563512e-03
  -1.8788168e-01
   1.7251058e-01
  -1.5319026e-01
   8.5213812e-02
   2.4558489e-02
   2.6146513e-01
  -2.9308314e-01
   1.8303224e-04
  -3.7984956e-01
  -4.2252254e-02
   1.5406126e-01
  -3.9965491e-01
  -1.8249203e-01
   1.4359982e-01
   2.8437206e-01
   3.2882854e-02
   4.6868491e-01
   1.0750066e-01
  -6.5306388e-02
   3.7176091e-03
  -2.6465762e-01
  -2.6092154e-01
  -3.1421128e-01
   8.0327197e-03
  -1.0543017e-01
   1.6010045e-01
   9.6711851e-03
  -1.4554883e-01
   1.3370172e-01
   8.9958453e-01
   1.8054145e+00
  -2.0106129e-02
  -8.7630753e-01
  -4.7653274e-01
  -5.0264459e-01
  -9.9316223e-02
  -3.0146168e-01
  -9.8457024e-04
  -2.4812164e-01
   2.7558927e-02
   2.2146311e-01
  -3.8657420e-01
  -1.1732093e-01
  -3.4930370e-01
   1.0275269e-01
   2.6866439e-01
  -2.8917812e-01
   3.9396589e-02
   8.2371853e-02
   2.1523366e-01
  -3.4513149e-02
   2.2714207e-01
  -2.5120438e-02
   3.2075617e-01
   3.5997507e-01
   2.0800053e-01
  -3.3151802e-03
   1.9167260e-01
   3.0875970e-01
   9.7252809e-02
   4.2823004e-01
  -1.0230153e-01
  -6.2255446e-02
   3.7834241e-01
   1.5076198e-01
   1.9925291e-01
   2.2991534e-01
  -3.0368787e-01
  -4.7191123e-02
   1.8045387e-01
  -2.2995863e-01
   1.2059968e-01
  -1.4930796e-01
   2.8098823e-01
   2.7377623e-01
  -4.6436509e-03
  -4.5364231e-02
   3.5152035e-01
  -3.2577256e-01
  -5.7491315e-02
  -4.8588379e-03
   8.1495266e-02
  -2.9709452e-01
  -2.6112102e-01
   9.2055015e-02
  -2.0798098e-01
  -2.8731342e-01
  -3.4541088e-01
  -2.4961721e-01
   7.3650942e-03
   2.4177747e-01
   1.6617126e-01
  -2.6564673e-01
  -3.1956903e-01
   9.5796832e-02
  -3.7270929e-02
  -3.7924386e-02
  -1.6517952e-01
  -1.5806857e-01
   2.4695050e-01
  -8.4085961e-02
   1.3982228e-01
  -2.6444665e-01
  -3.3457977e-01
  -2.5400595e-01
   2.4133520e-03
   6.4461468e-02
   2.5881914e-01
  -3.7535955e-01
  -2.6887161e-01
  -9.1647479e-02
  -1.7026776e-01
  -3.4518371e-01
   1.5918611e-01
  -1.1324765e-01
   1.1587978e-01
   1.1404892e-01
  -2.7045754e-01
   2.5340187e-01
   6.9522645e-02
  -6.1931478e-03
   4.5065563e-02
   1.0406312e-01
   2.3924651e-01
  -5.9137383e-02
  -4.6949078e-01
   5.3723273e-02
  -2.9049425e-01
   7.9480109e-02
  -3.4470896e-02
   2.4137105e-01
   8.4460297e-01
   1.1697112e+00
   8.0795040e-01
  -3.2323570e-01
  -8.2544728e-01
  -7.0619116e-01
  -3.4698578e-01
   1.6122643e-01
  -2.9333024e-01
  -1.1970941e-01
   1.9618293e-01
  -3.0953066e-01
  -1.0648858e-01
   7.4786159e-03
   2.1066129e-02
   9.1329501e-02
  -1.7230998e-01
  -4.7880666e-02
   2.5003738e-01
   3.5322811e-01
   5.9510894e-02
  -1.4781714e-02
   1.0346458e-01
   4.0804694e-02
   5.8610109e-02
  -1.1677449e-02
   1.7880952e-02
   2.4715923e-01
  -1.7897158e-02
   5.6037994e-01
   1.5624383e-02
  -1.0875254e-02
   3.4929411e-01
   2.8441200e-01
   8.0478262e-03
  -2.1449706e-01
  -2.9194571e-01
  -4.1675776e-02
   2.4429213e-01
   5.6755989e-03
  -2.4258915e-01
   2.5685358e-01
   1.5948846e-01
   9.6230257e-03
   6.6419991e-02
   6.6829821e-02
   1.2903940e-01
   1.4595591e-01
  -1.7725954e-01
   2.3976952e-01
  -1.8874511e-01
  -4.3341146e-02
  -1.6116324e-01
  -1.4550670e-01
  -3.3488448e-01
   3.0894222e-01
   1.3397356e-02
  -2.0770314e-02
   2.0910612e-02
  -1.1469369e-01
  -1.2269888e-01
   3.3653538e-01
  -2.8566301e-02
   1.6773252e-01
   1.0399902e-01
   1.9204021e-01
  -1.7899583e-01
  -1.7093768e-01
   1.2749869e-01
  -2.3523642e-01
   2.0920787e-01
  -2.5552106e-01
   2.9309731e-01
   1.3669286e-01
  -2.7501901e-01
   2.2826972e-01
   2.7338775e-01
   2.6229951e-02
  -1.0942514e-01
  -7.4381895e-02
   1.0777069e-01
  -2.0127793e-01
  -3.6823961e-01
   2.8546323e-01
   3.2430361e-01
   2.2772140e-01
   4.1476185e-01
   8.3565680e-02
  -1.1803579e-01
   2.1753116e-01
   3.5738513e-01
   2.1904362e-01
   2.9955283e-01
   2.2364014e-01
   4.9851996e-03
  -2.7456775e-01
  -2.4137732e-01
   1.1826196e-01
  -2.1152643e-01
  -4.6030668e-01
   4.2445739e-01
   8.3340777e-01
   1.1642001e+00
   2.2684857e-01
  -1.8431357e-01
  -7.2218107e-01
  -5.8259683e-01
  -2.4682901e-01
  -8.9384522e-02
  -2.4049348e-01
  -1.0565095e-01
  -4.1600591e-01
  -3.0027613e-01
  -1.8269359e-01
   1.2603885e-01
   2.6636440e-02
   1.2595356e-01
   2.3347104e-01
   2.9169302e-01
  -1.9219458e-01
   1.9558269e-01
   3.0266154e-01
   2.8218302e-01
   2.4937313e-01
  -1.1732581e-01
   3.7589943e-02
   1.3755938e-01
   3.6616288e-01
   7.3459540e-02
   2.1093648e-04
   6.3288389e-01
   7.1299870e-02
   5.7994318e-01
   2.9402279e-01
  -1.4554714e-02
   1.3452806e-01
   2.4603645e-01
  -8.5939786e-02
  -2.1747073e-01
   9.7114882e-02
  -1.1932538e-01
  -5.8936566e-02
   3.9883081e-01
  -6.5831888e-02
   3.9020513e-01
   5.3222718e-03
  -2.5974043e-01
  -6.9828589e-02
  -1.8813504e-01
   3.9917499e-01
   8.5816884e-03
   7.5164066e-02
  -1.3775948e-01
   3.0648413e-01
  -2.4405500e-01
   2.4039311e-01
  -3.1980807e-02
   3.1833441e-01
   4.3798574e-02
   2.8387123e-01
  -9.3648538e-02
  -6.0412520e-02
   8.3123700e-02
   3.0773710e-01
  -2.3713768e-01
  -3.1061455e-01
  -4.9307634e-02
   7.7057297e-02
   3.1393423e-01
  -1.2910141e-01
   4.6879849e-02
   2.0262633e-01
  -1.1527448e-01
  -2.9767347e-01
  -4.5082848e-02
  -3.3881018e-01
   1.1370602e-01
  -2.9585729e-01
  -2.0912567e-01
   1.2335884e-02
   8.0469258e-02
  -1.0206625e-01
   5.6030287e-02
   2.5408144e-01
   2.0306795e-01
   3.1814303e-02
   1.7720721e-01
   5.6837327e-02
   3.9623498e-01
   4.2519211e-02
  -2.1767039e-01
  -1.1105650e-01
  -1.4223991e-01
  -4.5617032e-01
  -3.3904870e-01
   1.2541094e-01
  -7.9720456e-03
   8.2536993e-02
  -2.0728458e-01
   6.9531695e-01
   9.4440318e-01
   1.8282640e+00
   5.8494719e-02
  -8.0076534e-01
  -3.9350550e-01
  -4.7895787e-01
  -1.3010515e-01
   5.7296192e-02
   1.3631552e-01
  -1.7475344e-01
  -3.5814142e-01
  -2.2991648e-01
   1.6376713e-01
   2.5530437e-01
   3.2379066e-02
   3.0630934e-01
   9.7864306e-02
   3.9145297e-01
   2.7362670e-01
  -1.2499000e-01
   1.5191402e-01
   2.7337760e-01
   4.7863286e-01
   3.1554617e-01
   6.2532795e-01
   3.1078851e-02
   1.6111094e-01
   2.9466307e-01
   5.6651231e-02
   1.1072596e-01
   4.7885948e-02
   3.5664239e-01
   7.4376838e-02
   3.5483466e-01
   1.4872906e-01
  -1.0199517e-01
   2.0244487e-01
  -2.4883515e-01
   1.1772188e-01
   4.1263239e-01
  -3.8827066e-02
   1.0329491e-01
   3.6638251e-01
  -9.5704388e-02
   2.9021037e-01
  -1.6483824e-01
   3.2355892e-01
  -9.6491932e-02
   2.8249407e-01
   2.4765779e-01
  -1.7456011e-01
   3.7813924e-01
  -1.2914700e-01
   2.2332159e-01
   2.3598412e-01
   2.2097638e-02
   3.0463240e-01
  -2.6058973e-01
  -2.3610541e-01
   2.6473470e-01
  -3.2793896e-01
   1.7893363e-01
   2.3086008e-01
  -2.5935061e-01
   1.3800422e-03
  -1.0230006e-01
   1.9130522e-01
  -1.4062231e-01
   2.2185011e-01
  -2.2398941e-01
   2.3951367e-01
   3.0329697e-01
  -2.3107337e-01
  -3.0950388e-01
   1.9259352e-02
  -3.4789742e-01
   2.2038994e-01
   2.7161175e-01
   1.0443368e-01
  -1.8884755e-01
   7.8378600e-02
   3.7824170e-01
   3.8795836e-01
   2.0056051e-01
   4.3596219e-01
   4.5170981e-01
   1.8858647e-01
  -2.5293058e-01
  -1.3242942e-01
  -1.5862879e-02
  -1.4667478e-01
   1.5962642e-01
  -4.3059297e-01
  -2.1491182e-01
  -3.6880809e-01
  -2.3543187e-01
   5.3191214e-01
   1.0642769e+00
   1.4687676e+00
  -1.1951526e-01
  -8.1767042e-01
  -3.2980399e-01
  -4.0723143e-01
   1.8963781e-02
   1.9326731e-01
  -1.2817034e-01
  -1.3000243e-02
   2.5719167e-01
  -1.7116694e-01
   5.8785500e-02
  -1.8090446e-01
   2.4886284e-01
  -1.5916217e-01
  -1.2419249e-01
   3.1910343e-01
   6.4259901e-02
  -1.2066686e-01
  -2.1249647e-01
  -8.1329024e-02
   7.1257748e-02
   5.6272172e-01
   4.6836881e-01
   4.0118272e-01
   5.3850337e-01
   2.4969034e-01
   4.5280304e-01
   2.8718206e-01
   5.0477913e-01
   2.0164358e-01
   4.6254661e-01
  -1.8311255e-01
   4.6797562e-01
  -7.6510991e-02
  -2.5059583e-01
  -1.9249295e-01
   4.1848774e-02
   3.2841547e-01
  -9.5286441e-02
   2.5030344e-01
  -1.6921642e-01
   2.2850862e-01
  -1.1066730e-01
  -2.3091967e-01
   2.9892206e-01
   1.8256668e-01
   3.6775182e-01
   3.8170751e-01
   5.1568603e-02
   2.9654325e-01
   1.1051209e-03
   2.8531510e-01
  -3.1566583e-01
  -2.6215918e-01
   1.6627566e-01
  -7.8364274e-02
  -8.6444447e-02
   6.9403504e-02
  -3.4007649e-01
  -8.5332639e-02
  -3.2188606e-01
   1.2618501e-01
  -2.1468042e-03
  -3.0306599e-01
  -7.1850776e-02
  -5.4989692e-02
   1.0047377e-01
  -2.1307714e-01
  -3.1409506e-01
  -2.8393128e-02
   1.4940071e-01
   7.4212985e-02
   2.4993649e-01
  -1.9844262e-01
  -2.0622771e-01
  -2.0013722e-01
   2.1198365e-01
   1.8667301e-01
   3.6503375e-01
   2.3788186e-01
   2.6802380e-01
   1.7806545e-01
   2.1941037e-01
   4.3876635e-01
   3.5076278e-01
  -7.8491678e-02
  -3.2035188e-01
  -1.8712204e-01
  -1.0085002e-01
  -4.5306398e-01
   1.3289739e-01
   1.2238641e-01
   1.6442313e-01
   7.0298416e-01
   1.6166946e+00
   7.9647129e-01
  -3.0571357e-01
  -8.4372817e-01
  -2.2698997e-01
   1.0899305e-01
  -3.3810325e-01
   2.2999996e-01
  -4.2749431e-01
  -1.0542018e-01
  -4.0967305e-01
  -2.3323644e-01
   1.1758481e-01
   1.3370408e-01
  -1.5153326e-01
  -8.3423196e-02
  -2.2666788e-01
  -2.3771901e-01
   2.8975061e-01
   2.0759693e-02
   1.8871584e-01
   5.2985509e-01
   3.6191145e-01
   2.6490466e-01
   4.0837299e-01
   4.3985055e-01
   1.4510153e-01
   5.4751399e-01
   3.3613363e-01
   2.6309775e-01
   4.2069330e-01
   2.6814740e-01
   1.8058064e-02
  -1.5271141e-01
   1.7211262e-01
   2.0680315e-01
   1.4653582e-01
   9.8610718e-02
   5.5943287e-02
  -5.3127665e-02
   2.6987411e-02
   2.6081824e-01
   4.2300627e-01
  -8.8912209e-02
   2.8011447e-01
  -1.8001339e-01
  -2.4927203e-01
   3.3707725e-02
   1.1012163e-01
  -1.2725188e-01
  -1.9744368e-01
   1.7028215e-01
  -6.5743148e-02
   3.8830514e-02
   1.5788694e-01
   8.8389716e-02
   2.1054529e-02
   2.1034881e-01
   1.4160356e-01
  -1.1430052e-01
   2.4464622e-01
   1.2981354e-01
   7.3278437e-02
  -3.2422220e-01
   2.3338011e-01
  -2.6759423e-01
   2.3599373e-01
  -1.0596074e-01
  -5.6511391e-02
   2.1362083e-01
  -2.5783492e-01
   8.3831189e-02
   2.9469211e-01
   1.0385459e-01
  -3.2812459e-01
   1.3737022e-01
  -1.8140344e-01
   1.3734288e-01
  -1.1197041e-01
   2.8214612e-02
  -1.7051312e-01
   3.6792052e-01
   3.0650052e-02
  -1.7556540e-01
  -9.8994186e-02
   3.0827720e-01
   4.5043605e-01
  -4.1415149e-02
   2.0634418e-01
  -1.2293655e-01
  -3.7304692e-01
  -1.0014639e-01
  -2.0865314e-01
   2.3520701e-01
  -2.7045580e-01
  -1.4996845e-02
   3.8540443e-01
   1.3116457e+00
   1.7632780e+00
  -6.8368936e-02
  -8.8288429e-01
  -3.4597882e-01
  -6.0620716e-01
   1.3723091e-01
  -1.6432149e-01
   1.6728608e-01
   2.5609427e-01
  -9.7801090e-02
  -3.6071452e-01
   1.8756913e-01
   7.7788583e-02
   2.7999495e-02
   7.4297473e-02
  -6.6558013e-02
   2.5009476e-01
  -7.1466528e-03
   3.9562997e-01
   5.0932186e-02
   4.0467435e-01
   4.6090393e-01
  -2.7186604e-02
   2.5949097e-01
   6.5846256e-01
   2.8298258e-01
   2.1937691e-01
   4.2856203e-01
   5.8381008e-01
   5.1508204e-01
   2.9526098e-01
   3.9763436e-01
   3.5636034e-01
   1.0500298e-01
   3.5402448e-01
   8.5002784e-02
   3.9762944e-01
   2.8246166e-01
  -1.7276813e-01
  -9.9369789e-02
  -1.7631149e-01
   1.0825704e-01
  -2.2584890e-01
   6.2556545e-02
   4.2752612e-01
   2.1229006e-01
   3.3945632e-01
   7.7263768e-02
  -7.3629552e-02
  -1.5178907e-01
   3.8804120e-01
   2.3966139e-01
   3.6561624e-01
   1.6034588e-01
  -1.6921215e-01
  -1.1147063e-01
  -2.7352416e-01
  -2.8833295e-01
  -1.2339781e-01
  -2.0466996e-01
   1.5506197e-01
   3.0787438e-01
  -8.2336820e-02
  -2.5852678e-01
   2.3155401e-01
   4.4453122e-03
   1.6777160e-01
   1.4487785e-01
  -2.8181906e-02
   1.3344282e-01
   1.2539210e-01
   3.4685347e-02
  -1.8892983e-01
   1.5597350e-02
   1.9618430e-01
  -4.8678100e-02
   1.7376858e-01
   1.3315030e-01
   3.3172098e-01
  -1.3166285e-01
  -9.7496933e-02
  -8.1094222e-02
  -3.2360480e-01
   1.3664433e-01
   1.3392733e-01
   3.4199307e-02
   1.0345211e-01
   2.4206090e-01
   1.0371751e-01
  -5.3336811e-02
  -1.8005456e-01
  -2.0234451e-01
   3.1653520e-01
  -1.0123858e-01
   7.7897403e-02
  -2.3310802e-01
  -4.2527945e-01
  -5.4648517e-02
  -3.5192911e-02
   6.9377552e-01
   1.4618686e+00
   9.9572118e-01
   8.1674564e-02
  -5.5237986e-01
  -5.1469546e-01
  -2.9664893e-01
   2.6691185e-01
  -2.9207544e-01
  -8.0266117e-03
   3.4020232e-02
  -3.5833174e-01
   7.5257543e-02
   2.3246832e-01
  -6.7560163e-02
  -2.7926755e-02
  -2.6455930e-01
   1.1807602e-01
   3.3637818e-01
  -1.0387526e-01
  -1.6239423e-01
  -4.6965771e-02
   3.0904221e-01
   3.9434014e-01
   3.5344169e-01
   2.8456753e-01
   1.9196568e-01
   4.3602752e-01
   3.8050846e-01
   4.6678706e-01
   6.9681055e-02
   4.3917486e-01
   3.9866242e-01
   5.5361729e-01
   4.3779561e-01
  -6.7619304e-02
   4.5226748e-01
  -7.2376390e-02
  -8.9647372e-02
  -2.5096995e-01
  -4.1408202e-02
  -5.9628752e-02
   1.6384404e-01
   2.1005553e-02
  -1.2601109e-01
   1.3566834e-02
  -1.5310059e-01
   3.1638517e-01
  -1.7131318e-01
   1.8963083e-01
   2.3909992e-01
  -2.7045182e-01
  -1.9621405e-01
  -2.6423948e-01
   2.5047663e-01
  -2.7251991e-01
   1.6589308e-01
   1.8876858e-02
   2.5183970e-01
  -6.4262477e-02
  -2.9234785e-01
  -1.6698196e-01
   1.7773475e-01
   6.9426827e-02
   2.9905534e-01
   2.0254309e-01
  -2.5229289e-01
   3.7053713e-01
   1.8772055e-01
  -3.0459015e-01
   1.4618250e-01
   1.0737019e-02
  -3.0972430e-01
  -2.5383169e-01
  -2.9021415e-01
   9.1713224e-02
  -1.8025030e-01
  -2.2418076e-01
   4.7620066e-02
   3.7779734e-01
   2.0350590e-01
   2.7468583e-01
   1.0947100e-02
   7.6727176e-02
  -9.6819682e-02
   2.5146684e-01
   7.2276972e-02
   6.7346471e-02
   2.2056002e-01
   2.6832128e-01
   1.0932972e-01
  -2.4468894e-01
   4.1109934e-02
   7.9323761e-02
   3.0323003e-01
   1.1686918e+00
   1.7468561e+00
   7.6945547e-01
  -5.3349772e-01
  -7.8762870e-01
  -7.7786158e-01
   1.2800604e-01
  -7.2278862e-02
   1.5503087e-01
  -7.6447315e-02
  -4.0198628e-02
  -9.3058425e-02
   2.4826921e-01
   2.5611515e-01
   1.0740767e-01
  -1.1611525e-01
  -1.0144913e-01
  -1.1868717e-01
   2.4259309e-01
   3.1186457e-01
   3.9058045e-01
   3.7914238e-01
   3.2535939e-02
   4.5033279e-01
   3.8086559e-01
   1.0720715e-01
   2.4199633e-01
   2.8757027e-01
   3.2080731e-01
   3.5890217e-01
   2.0719014e-01
   1.2967597e-01
   3.7823136e-01
   4.9470260e-01
   2.1685639e-01
   1.9118392e-01
   2.7821839e-01
   7.0431648e-03
   5.3568442e-02
   9.7928292e-02
   4.0154917e-01
   6.7089220e-02
   1.9782830e-01
   7.3264713e-02
   1.3943822e-01
  -2.1925497e-01
   3.0850973e-01
   2.2211237e-01
  -1.3263047e-01
  -2.6256336e-01
   2.6152833e-01
   1.2465626e-01
   1.8043357e-01
   1.4688804e-01
   2.3168675e-01
   3.2387002e-01
   1.7396351e-01
  -2.1761482e-01
   2.0261360e-01
   1.1143421e-02
   1.4685772e-01
   1.2748302e-01
   1.7820414e-01
  -2.7039369e-01
  -1.3972017e-01
  -2.0881480e-01
   3.2865420e-01
   3.9430811e-02
   1.5020905e-01
   1.3640020e-01
  -2.4895154e-01
  -1.6833771e-01
  -1.3187133e-01
   3.1891618e-01
  -1.0526202e-01
  -5.1513533e-02
   2.7294097e-01
   3.3356615e-01
   4.1228170e-01
   4.5576538e-01
   2.8398524e-01
  -2.7643255e-01
   1.2367102e-01
   2.3474735e-01
  -3.6560677e-01
  -6.6503916e-02
   2.2695062e-01
  -3.0990930e-01
  -8.6717703e-02
   4.3608870e-03
   1.2298375e+00
   1.4510814e+00
   2.6192002e-01
  -7.7404680e-03
  -4.4495327e-01
  -1.9089251e-01
  -1.5508887e-02
   6.8903213e-02
  -3.6980245e-02
  -2.7631111e-01
  -3.3313076e-02
   1.3338441e-02
   2.2654130e-01
  -2.1616231e-01
   4.1336546e-02
   2.4246654e-01
  -3.9343715e-02
   1.0559613e-01
   2.6945852e-01
  -8.0904925e-02
   2.4805061e-01
  -1.5243257e-01
   2.4681332e-01
   3.2655403e-01
  -3.2316334e-02
   5.9257292e-01
   5.9116193e-01
   5.3562641e-01
   5.5978968e-01
   2.4471956e-01
   8.9881338e-02
   1.7492923e-01
   3.3499961e-01
   5.1087080e-01
  -1.4107621e-01
   2.8582747e-01
  -2.1754589e-01
   2.6886179e-01
   4.8377291e-02
  -2.3447829e-01
   3.1852307e-01
  -1.5551569e-01
  -1.9017826e-01
  -8.5553665e-02
  -6.5492159e-02
   1.4378386e-01
   1.9883148e-01
   4.1103800e-01
   4.0005455e-01
   2.4013104e-01
  -8.7519122e-02
   3.5783230e-01
  -1.2136167e-02
  -1.5317406e-01
   1.4066413e-01
  -3.2423518e-01
  -3.0425027e-01
  -2.1329327e-01
  -1.6406787e-01
   1.6924016e-01
  -4.4219567e-02
   2.6270123e-01
  -5.1207323e-02
   2.2730934e-01
   2.0499902e-01
   4.4891828e-02
  -2.4132628e-01
   2.6543415e-02
   3.0797007e-04
  -3.7797945e-02
  -1.6313465e-01
  -1.6910860e-02
   5.6855917e-02
   2.1943173e-01
   1.9317824e-02
   5.8757838e-02
  -4.1040465e-02
   3.0127109e-01
  -8.8269915e-02
   1.8775157e-01
  -2.2994657e-01
   1.1531771e-01
   1.9044431e-02
  -4.5974105e-01
   1.7382138e-01
   2.1887256e-01
   1.4216537e+00
   1.7925422e+00
   1.0535775e-01
  -5.0488399e-01
  -5.0151308e-01
  -4.8747132e-01
   1.4768146e-01
  -2.1014906e-01
   2.7065078e-01
  -1.5739725e-01
   2.9164646e-02
  -1.2261211e-01
  -1.6997737e-01
   6.0666496e-02
  -2.1553888e-01
  -1.8482797e-01
  -1.8465536e-01
  -2.3053999e-02
   3.5825498e-01
   1.7898189e-01
   4.7110699e-01
   5.8099649e-01
   1.6839421e-01
   1.0355107e-01
   3.6265774e-01
   2.6208705e-01
   6.3169877e-01
   2.1216100e-01
   6.2583301e-01
   4.2827110e-01
   4.8397558e-01
   1.7594001e-01
  -1.1795326e-01
  -3.9650859e-02
   1.6088963e-01
  -2.1723098e-01
   1.4091026e-01
  -6.5708391e-02
   2.3341304e-01
   3.5307260e-01
  -2.5651599e-01
  -3.4867073e-02
   3.1353724e-02
  -1.9754112e-01
  -2.0791998e-01
  -2.1772302e-01
   3.6193354e-01
   4.0529184e-01
  -1.4227925e-02
  -5.8552083e-02
   8.9338961e-02
   2.5653418e-01
   2.5100145e-01
   3.0154359e-01
   2.4591715e-01
  -3.0811194e-01
   3.2143646e-01
  -2.9984002e-01
  -3.0174118e-01
   1.7076448e-01
   4.4718882e-02
   4.0121746e-02
   1.9558449e-02
  -2.8595802e-01
  -1.8081964e-01
  -2.5483918e-01
   3.5115298e-01
  -2.8724461e-01
  -2.7950901e-01
   2.0665895e-01
   3.9475942e-02
  -1.2632466e-01
   3.0979142e-01
   4.2141861e-01
   4.1764440e-01
  -3.7643340e-02
   2.2903857e-02
  -9.5371336e-03
   1.9978247e-02
   9.8420080e-02
   2.1822587e-01
  -3.4345537e-01
  -2.6139464e-01
  -2.1050285e-01
   5.3037467e-01
   8.9850563e-01
   1.9746063e+00
   7.2123695e-01
  -4.5591943e-01
  -2.5108676e-01
  -3.8986776e-02
  -7.9286788e-03
  -5.6708964e-02
  -1.5383788e-01
   1.4347557e-01
   1.6469288e-01
  -3.5403873e-01
  -3.1749282e-01
  -1.1772871e-01
   2.4073830e-01
   1.3719812e-01
   4.1407523e-01
  -1.3802875e-01
   2.0294933e-01
   2.2457525e-02
  -9.9010101e-02
   4.9529508e-01
   3.3508480e-01
   1.7385937e-01
   1.1940160e-01
   2.6974558e-01
   8.9123418e-02
   5.0443330e-01
   2.2306953e-01
   5.7269159e-01
   2.2153793e-01
   2.6047769e-01
  -4.3531230e-02
  -1.1093527e-01
  -4.1849375e-02
  -1.2742675e-02
  -1.8092734e-01
   1.2268922e-03
  -2.0220587e-01
  -1.6614493e-01
  -1.8167317e-01
   4.0125593e-01
  -1.3565919e-02
   1.8749263e-01
   3.7670713e-02
   4.3950651e-01
   2.9316713e-01
   3.8453450e-01
   1.7787507e-01
   2.3646725e-01
   2.2586452e-02
  -1.0482500e-01
  -1.7415607e-01
  -1.5522480e-01
   3.7613733e-01
  -2.6166544e-01
   3.2496546e-01
   7.4983114e-02
   2.7520536e-01
   2.2816290e-02
  -5.7834012e-02
   2.3967247e-01
  -4.8105842e-02
   8.9447935e-02
   3.2200626e-01
   2.8809416e-01
  -1.3412344e-01
   5.0682912e-03
   2.7020053e-01
  -1.8781620e-01
   2.2593718e-01
   3.1900327e-01
   4.7011707e-02
   9.4789741e-02
   2.8171820e-01
   3.8500852e-01
   2.3898583e-01
  -5.8607884e-02
   3.2325124e-02
  -1.3028202e-01
   7.3057151e-02
  -1.7874152e-01
  -1.4956838e-01
   2.5087116e-01
   3.3328951e-01
  -2.6433971e-02
   2.9327651e-01
   1.7295887e-01
   3.4591193e-01
   1.9172680e-01
  -1.9293561e-01
  -3.3327585e-01
  -3.6556468e-01
   6.2471228e-02
   8.1579331e-02
  -2.2523454e-01
   2.2276305e-01
   1.0985375e+00
   1.5500498e+00
   2.0645453e-01
  -7.5768461e-01
  -3.7773329e-01
  -4.5889811e-01
  -2.1598063e-01
  -3.8095550e-01
   1.3705496e-01
   1.0877808e-02
   2.9611460e-02
   1.6288486e-01
   2.2562732e-01
  -5.6162990e-02
  -2.1130210e-01
  -1.5436581e-01
   2.4789994e-01
   2.2251149e-01
  -1.7926173e-01
   7.7913737e-02
   2.0786160e-01
   4.1598605e-01
   3.2617025e-02
   2.9409929e-01
   5.4586298e-02
   5.7058866e-01
   3.1006686e-01
   2.1984357e-01
   1.1100413e-01
   9.9986243e-02
   6.8895908e-01
   1.3313584e-01
   6.2451756e-01
   1.2780658e-01
   5.2203969e-01
   6.0341347e-02
  -1.5038900e-01
   2.0902218e-01
   1.5929613e-01
   4.0995759e-01
  -8.3623905e-02
   3.1197960e-01
   1.4073199e-02
   4.4125112e-01
   3.6105788e-01
   2.7916066e-01
  -9.8597940e-02
  -2.2813868e-01
  -9.6845927e-02
   1.4172686e-01
  -1.8280491e-01
   3.4398305e-01
   3.7402105e-01
  -3.9891702e-02
   6.4976212e-02
  -2.7632095e-01
  -6.0637710e-02
   6.6457295e-02
  -1.0460728e-01
   2.0013039e-01
   3.4985723e-01
   1.2145346e-01
  -1.1712800e-01
   3.5218269e-01
  -2.4270125e-01
   1.5581356e-01
   3.6627242e-01
   5.9027589e-02
   3.7231961e-01
  -1.3188320e-01
   6.1669747e-02
   3.4068619e-01
  -1.5179415e-01
   2.6175063e-01
  -2.1009501e-01
  -1.0423768e-02
   3.1592270e-01
   2.5631800e-01
   1.3628945e-01
   2.4016623e-01
  -7.1997224e-02
   1.2260022e-01
  -7.3279361e-02
   4.1627995e-01
  -2.4077561e-01
   1.4418585e-01
  -2.8726119e-01
   6.0761992e-04
   1.9665092e-02
   1.2210399e-01
  -1.9378461e-01
   2.2089271e-01
   4.4700008e-01
   6.3522067e-01
   1.2463351e+00
   1.0148896e+00
  -4.2252917e-01
  -3.8234262e-01
  -7.5854673e-01
  -7.5078645e-03
   6.8444005e-02
   1.6124755e-01
   2.8753970e-01
  -2.3095450e-01
  -3.4040471e-01
   2.4392093e-01
   1.6827916e-03
  -2.2342677e-01
  -2.0706757e-01
  -1.6874143e-01
  -1.2167769e-01
   4.7157197e-01
  -3.9093296e-03
   2.6527821e-01
   4.6258145e-01
   5.7457252e-02
   4.4019923e-01
   2.3680806e-01
   2.1374815e-01
   4.7406028e-01
   2.9075166e-01
   1.2008233e-01
   7.0659687e-01
   3.6946943e-01
   3.3720421e-01
   1.7935441e-01
   5.0002235e-02
   4.6100990e-01
   1.4565539e-02
   1.8920713e-01
   1.7822921e-01
   4.5655594e-01
  -3.3948372e-02
  -2.6576140e-02
   9.4869278e-03
   1.7767503e-01
   5.2371755e-02
  -4.5252670e-02
   2.5110967e-01
  -3.9237225e-02
   4.3096957e-01
   1.0630529e-01
   6.7514560e-02
   1.6560073e-01
   1.6734549e-01
   3.0318611e-01
   3.3991145e-01
  -1.5457994e-01
  -2.1406875e-01
  -5.7226259e-02
   1.4379853e-01
  -1.6159446e-02
   3.5667561e-01
  -2.5622290e-01
   3.9975074e-01
   1.7588217e-01
   1.4608837e-01
  -1.7232472e-01
  -2.8047563e-01
   8.5028048e-02
  -2.5964235e-01
   1.8251605e-01
  -1.3565923e-01
  -1.2678355e-01
   3.9067227e-01
  -1.7794788e-01
   2.6371987e-01
  -2.7209839e-01
  -6.3645229e-02
   3.9697936e-01
  -2.8020833e-02
  -1.0452972e-01
   2.6039316e-01
   3.7704670e-01
   6.0246848e-01
   5.3357289e-01
  -1.4226208e-01
   2.9224403e-01
   3.5688866e-01
  -4.2066808e-02
  -3.3163446e-01
  -3.2062614e-01
  -2.3890895e-01
   1.3081158e-01
  -8.8822505e-02
   6.3508181e-01
   9.6980107e-01
   1.8743346e+00
   1.0628926e-01
  -1.9166300e-01
  -5.3673669e-01
  -4.5605212e-02
  -3.9550561e-01
   2.7540166e-01
  -1.1161431e-01
  -3.0628938e-01
   3.3308326e-01
   1.2161729e-01
  -1.8497570e-02
   9.9649530e-02
  -1.9826741e-02
  -1.3037972e-01
  -1.9615918e-01
  -1.3018006e-01
   7.8859888e-02
   4.3633299e-01
   1.6143641e-01
   3.3914154e-01
   2.1923740e-01
   5.4887995e-01
   5.5433480e-01
   1.2089163e-01
   1.3291535e-01
   5.1034521e-01
   3.0756152e-01
   1.1871669e-01
   4.4999948e-01
   4.1352193e-01
   5.7161042e-01
   2.9783310e-01
   1.9335239e-01
   2.0739876e-01
   4.8122043e-01
   1.4681692e-01
   2.9798035e-03
   4.6697005e-01
   4.6843463e-01
   4.0140700e-01
   2.9827237e-01
   2.5455106e-01
   3.0765857e-01
   6.9515320e-02
   5.9185606e-02
  -8.2963918e-02
   3.7172234e-01
   4.1909919e-01
   4.0898786e-01
  -1.8570155e-01
  -2.2455984e-01
  -1.6546686e-01
   8.4227007e-02
  -2.4611221e-01
  -2.6776503e-01
  -2.1562225e-01
   1.4047499e-01
  -2.6040096e-01
   1.7107817e-01
   9.8550441e-02
  -2.4277013e-01
  -1.3528784e-01
  -5.8481255e-02
  -2.3553221e-01
   1.7840522e-01
   7.8634754e-03
  -2.0671588e-01
   2.8322013e-01
   4.4767581e-01
   1.4035641e-02
   5.3382682e-01
   5.8299141e-02
  -1.9156451e-01
   1.0794017e-01
   3.9590003e-01
   1.4009977e-01
  -1.3503554e-01
   7.9173472e-02
  -6.6300392e-02
  -1.4433526e-01
   3.1156214e-01
   5.1212227e-01
   1.5455720e+00
   1.9424779e+00
  -4.8302986e-02
  -4.6770865e-01
  -7.2212970e-01
  -6.1817887e-01
   6.0843035e-03
  -6.4225293e-02
  -2.9763296e-01
  -5.8702355e-03
  -1.2210093e-01
   2.3121293e-01
  -3.1583349e-01
  -1.7526691e-01
   3.3941354e-01
  -1.2430743e-01
  -2.9492228e-02
   3.8966748e-02
   3.3831348e-01
   2.4308553e-01
   4.3266038e-01
  -2.6213787e-02
   9.8023718e-02
   4.2924560e-01
   8.8365760e-02
   5.7380184e-01
   4.7117323e-01
   6.1777284e-01
   1.9634495e-01
   5.8054692e-01
   5.1398971e-01
   5.8604646e-01
   1.9466474e-01
  -1.4500164e-02
   4.1450524e-02
  -2.6075120e-02
   8.3866091e-02
  -7.1528331e-03
   1.9251426e-01
   3.9683916e-01
  -6.9440292e-02
  -9.3987212e-02
   3.9445718e-01
   3.9827723e-01
  -3.8049352e-02
  -1.8640933e-01
   3.0173858e-01
  -1.5828832e-01
   7.3293354e-02
   3.8440481e-02
   1.2888930e-01
  -1.8563172e-01
   1.3985067e-01
  -2.0192642e-01
  -2.0361299e-01
   9.4684898e-03
  -1.0444754e-01
   3.3672339e-01
   6.2564298e-02
   1.2684174e-02
  -7.2942956e-02
   7.4829156e-02
   3.6178658e-01
  -6.0589171e-02
  -1.2297709e-01
   4.5748301e-01
   3.6504275e-01
   1.2607929e-01
   4.1690768e-01
   1.0066028e-01
   3.1805415e-01
  -6.5401186e-02
   2.4111638e-01
   1.0444995e-01
   8.3208987e-02
  -4.5976019e-01
   1.7524276e-01
   8.3623344e-01
   1.7219100e+00
   1.3127589e+00
  -3.2145269e-01
  -6.6611314e-01
  -2.4359762e-01
  -5.4899958e-01
  -2.8483354e-01
   1.7022167e-01
  -3.3799281e-01
  -2.4735577e-01
  -1.2284671e-01
   3.0125528e-01
   1.1290359e-01
  -2.6081239e-01
  -6.3900500e-02
  -1.1687187e-01
  -2.3920414e-02
  -1.7798660e-01
   3.9482854e-01
   4.0343934e-01
   4.0331873e-01
   4.9947494e-01
   5.4881754e-01
   1.1809772e-01
   3.3779691e-01
   1.0837496e-01
   9.4805745e-02
   1.0885504e-01
   1.9646924e-01
   1.4938905e-01
   3.4499358e-01
   2.3742923e-01
   2.8994396e-01
   3.2253864e-03
   2.0938127e-01
   1.8406405e-01
  -1.7535740e-01
  -2.1039163e-01
  -2.4289736e-01
  -1.5256247e-01
   9.1702827e-02
   3.3380436e-01
  -4.0602015e-02
  -1.2121481e-01
  -2.0438041e-01
   4.1230617e-01
  -7.8501374e-02
   1.8300828e-01
  -1.2004016e-01
  -1.0542844e-01
   2.4580317e-01
  -1.6532006e-01
   2.7176075e-01
  -2.2860721e-01
   3.8152421e-01
   1.6798309e-01
  -1.0532869e-01
   2.8791694e-01
  -3.0798547e-01
   2.5363611e-01
   3.7336570e-01
   2.4431660e-01
   3.2568869e-01
   1.7592430e-01
   4.8251221e-01
  -5.3646530e-02
  -2.8143478e-02
  -1.5950504e-01
  -1.4090621e-01
   3.4617688e-01
   1.7626794e-01
  -3.1717433e-01
   4.4297418e-02
  -3.8120553e-01
  -3.4437215e-01
  -1.1368943e-01
   8.7379100e-01
   1.8716868e+00
   1.8795244e+00
  -3.1950107e-02
  -5.3110076e-01
  -6.1539555e-01
   1.4957431e-01
   3.3084069e-01
  -3.0835388e-01
  -1.2155123e-01
  -1.5453593e-01
  -1.8113758e-01
   1.8969315e-01
  -6.6622538e-02
  -1.9928716e-01
  -1.3652250e-01
   3.6337820e-01
   4.3013756e-01
   1.4537310e-01
  -1.5893150e-01
   1.4178236e-01
  -1.6210994e-02
   5.9468398e-01
   1.7757776e-01
   6.5906978e-01
   6.9020767e-01
   6.3650685e-01
   7.4486993e-01
   1.2043238e-01
   7.7031902e-01
   9.6554521e-02
   2.0853182e-01
   2.9068108e-01
   5.7845994e-01
   2.4179963e-01
   5.9601244e-03
  -1.2540024e-01
  -1.2206367e-01
  -5.2469385e-02
   7.3145344e-02
   4.1615522e-02
   6.2215967e-02
   1.9967619e-01
   8.2427728e-02
  -2.2685951e-01
  -2.1122606e-01
   3.8983753e-02
   4.5551958e-01
   1.2490280e-01
   3.9369550e-01
  -2.8004152e-02
  -5.6493977e-02
   3.4548603e-01
   2.7566512e-01
  -8.5875366e-03
   3.5301193e-01
   1.8411407e-02
   3.1967746e-02
  -6.9853706e-03
   2.4269433e-02
   1.7247916e-01
  -2.2235375e-01
   2.0922319e-01
  -2.0312732e-01
   8.8489915e-02
  -1.2259883e-02
   2.5520517e-01
   5.4305045e-03
   6.0473942e-01
   3.2287261e-04
   1.9548394e-02
   2.7330389e-01
  -3.4622375e-02
  -1.5251618e-01
  -2.4623496e-01
   2.8120251e-01
  -1.9074134e-01
  -2.2726961e-01
   4.8857481e-02
  -4.2018681e-01
   2.1582693e-02
   1.1186325e+00
   1.7187617e+00
   7.1874337e-01
  -2.7273829e-01
  -2.6157136e-01
  -2.1644183e-01
   3.6507596e-02
   8.9775881e-03
   2.5861219e-01
  -4.0107811e-02
  -6.4124721e-02
   7.4317796e-02
  -9.3847106e-02
  -2.4154145e-01
  -1.1901194e-02
  -1.1169193e-01
   2.1811606e-01
   3.1657481e-01
   1.1399727e-01
   2.7277445e-01
   7.3441544e-02
   2.3778059e-01
   1.8352408e-01
   5.7228168e-01
   5.5853337e-01
   1.5439602e-01
   1.2622141e-01
   4.6098904e-01
   6.1431974e-01
   6.5862211e-01
   5.5313016e-01
   6.1505936e-01
   5.2778306e-02
   2.4706205e-02
   4.6126872e-01
   1.3732419e-01
  -7.5054931e-02
   2.9148497e-01
   4.0261141e-01
   3.3778956e-01
   3.7431940e-01
   1.6092822e-01
  -7.3934827e-02
   1.6072160e-01
   3.6977838e-01
  -6.9738201e-02
   2.8628854e-01
   3.7850504e-01
   8.9579008e-02
   7.7103513e-02
   3.9457712e-01
   1.7970381e-01
   2.9939123e-01
   1.6055287e-02
  -4.9990306e-02
  -9.7456330e-03
   2.1342519e-01
  -1.4965224e-01
   5.3250023e-02
  -2.0014486e-01
  -1.9168424e-01
   3.7846483e-01
   1.5214461e-01
   2.2599353e-02
   2.3602961e-01
   1.8140499e-01
   3.1240739e-01
   3.6549350e-01
   3.6343296e-01
   3.0233749e-01
   2.5569291e-01
  -1.0190726e-01
   3.9762865e-01
   4.8932490e-02
  -6.4946064e-02
  -3.7828891e-01
  -4.1435153e-02
   2.9091396e-01
  -1.9587734e-01
   9.1820948e-02
  -4.1749844e-02
   1.2450751e+00
   1.9326028e+00
   8.9519080e-01
  -5.3476754e-01
  -2.1715076e-01
  -4.4743395e-01
  -3.5929232e-01
   5.3058160e-02
   6.7145132e-02
  -2.4761170e-02
   8.4514883e-02
   1.8357140e-01
  -2.7117350e-02
   1.1558974e-01
   2.0311589e-02
  -1.6734126e-01
   1.7391667e-02
   1.7520094e-01
  -9.8496953e-02
  -1.0036414e-01
   7.0262829e-02
   3.7646868e-01
   2.7268134e-01
   3.4725678e-01
   6.8795381e-02
   1.0943925e-01
   3.2448300e-01
   3.1327333e-01
   7.7754951e-01
   6.1429666e-01
   5.1075777e-01
   6.2624589e-01
   3.1661715e-01
   1.7669018e-01
   4.9203568e-01
   5.4893737e-03
  -7.1687725e-02
   2.7458652e-01
  -1.2449617e-02
  -8.1006362e-02
  -7.6508612e-03
   1.2874887e-02
  -1.8703458e-01
  -4.1057622e-02
   2.6302198e-01
   4.8615895e-01
  -3.6649363e-02
   2.2252077e-01
   4.7443393e-01
   1.0872650e-01
  -2.5021229e-02
   1.8228104e-01
   1.3473434e-01
  -1.5974093e-01
   1.4602622e-01
  -1.5112933e-01
  -7.9437007e-02
   9.4730099e-02
   3.0904841e-01
   2.2771160e-01
   8.0364020e-02
   3.5563025e-01
   3.9039780e-01
   4.3597628e-02
  -6.8680305e-02
   3.5851117e-01
   8.2536558e-02
   3.7429042e-01
  -4.5521535e-02
  -6.9654702e-02
  -4.7662286e-02
   3.5224136e-01
   3.0688217e-01
   1.7730096e-01
   3.9375680e-01
   1.0449990e-01
   2.7485044e-01
   2.9633830e-01
   2.0506085e-01
  -3.4631983e-01
   3.0217098e-01
   2.4246869e-01
   5.8084493e-02
  -4.6337404e-02
   1.3701277e+00
   1.5409682e+00
   5.5091131e-01
  -3.0159648e-01
  -5.1260524e-01
  -4.2469428e-02
   1.8513776e-01
  -2.4897905e-02
   2.6593068e-01
  -6.5574250e-02
  -3.0402356e-01
  -1.0818159e-01
  -9.4187848e-02
   1.9623576e-02
   8.3461428e-02
   2.3153808e-01
   1.8978207e-02
   4.4092898e-01
   1.4703738e-02
   3.6380039e-01
   5.0342581e-01
   3.1631222e-01
   5.9172865e-01
   1.6905347e-02
   4.0699356e-01
   3.9401738e-02
   1.5958890e-01
   3.7767411e-01
   2.5089295e-01
   4.5725109e-01
   2.7570633e-01
   4.9367660e-01
   3.9362537e-01
   8.0167285e-02
  -8.2374954e-02
  -1.5480742e-01
  -3.4764569e-02
   1.5177728e-01
   2.2951310e-01
  -1.0602171e-01
  -1.0379272e-01
   3.8061866e-02
  -1.4531607e-01
   1.0439065e-01
   5.9086438e-03
   2.3474845e-01
  -4.2786167e-02
   2.5141250e-01
  -5.1087463e-02
  -1.5524559e-01
   4.0143616e-01
   1.4440144e-01
   4.1032216e-02
  -1.5395400e-01
   1.4070350e-01
  -1.8327172e-01
  -7.5902968e-02
  -1.7901141e-01
  -6.2519562e-03
  -3.8461182e-02
   3.9420829e-01
   3.5094948e-01
   2.8220813e-01
  -2.2364465e-01
   2.8133302e-02
  -7.9687102e-03
   2.8424685e-02
   4.3619009e-01
  -1.4002290e-02
  -7.4476566e-02
   4.3958916e-01
  -4.0136337e-03
   6.5163572e-01
   4.7586597e-01
   5.1718076e-01
   3.2583631e-01
   1.7562325e-01
   3.5223843e-01
   2.3747054e-02
  -3.7872148e-02
  -2.0281650e-01
  -2.6272421e-01
   6.5407149e-05
   5.4281848e-01
   1.5715808e+00
   1.6045296e+00
   1.6945965e-01
  -5.8291167e-01
  -8.7543552e-01
  -2.6739116e-01
  -1.4473221e-01
   2.5173800e-01
  -1.0798987e-02
   2.8922142e-01
  -1.5231192e-01
   2.4362581e-01
   3.0661967e-01
   2.9837815e-02
   1.5811981e-01
  -1.7484478e-01
  -3.3578883e-02
   2.3170054e-01
   1.9051353e-01
   4.8599317e-01
   3.5050760e-01
   2.7600675e-01
   4.1065906e-01
   4.6796748e-02
   6.4956598e-02
   5.7753331e-01
   2.8311544e-01
   1.3807622e-01
   7.1285957e-01
   1.0467906e-01
   9.9233374e-02
   3.9319448e-01
   2.5420621e-01
  -6.9027907e-02
  -9.8349805e-02
  -6.1056490e-03
  -8.3935109e-02
   2.4323073e-01
   1.5053701e-01
  -1.2090838e-01
   8.1942224e-02
   4.4850139e-01
   1.9831661e-01
   3.0872964e-01
   5.0399743e-01
   1.9911782e-01
   1.3963080e-01
   1.5957952e-01
   2.2691107e-01
   2.9757803e-01
   1.9303886e-01
   2.5845811e-01
   6.7344413e-02
   1.9530706e-01
  -1.2852754e-01
   3.7136470e-01
  -8.0939752e-02
  -2.2538227e-02
  -4.9689442e-02
   4.1544586e-01
  -1.3733623e-01
  -2.1338971e-01
   2.1380361e-01
  -1.9458677e-01
  -1.0218806e-01
   2.0822529e-01
   3.2512977e-01
   4.8674661e-01
   3.1027162e-01
   6.1718509e-01
   4.6168287e-01
   4.4305685e-01
   2.3425664e-01
  -2.0823889e-01
  -1.4227937e-01
  -4.4154989e-02
   2.4586453e-02
  -1.0658198e-01
   9.6673170e-02
  -1.1112760e-03
   3.1539323e-01
   5.3125044e-01
   1.5112310e+00
   1.3869677e+00
   3.6317852e-01
  -3.5555729e-01
  -2.5085555e-01
  -2.5525631e-01
   1.6538586e-01
   2.9094371e-01
  -6.4271792e-02
  -2.7414666e-01
   7.2078742e-02
  -7.6674287e-02
   3.0416414e-01
  -1.3001176e-01
  -9.9208407e-02
   1.5101565e-01
  -1.4624248e-01
  -1.1659609e-02
   2.9903230e-01
  -6.2357698e-02
   3.6007414e-01
   5.6780681e-01
   3.3850006e-01
   2.4951904e-01
   5.9860541e-01
   7.5831905e-01
   5.4731265e-01
   4.3496106e-01
   4.2200800e-01
   2.0079140e-01
   3.4056120e-01
   3.3209424e-01
   5.4324554e-01
   4.0201573e-01
   2.7977254e-01
  -1.1657579e-01
  -1.0614134e-01
   2.0858104e-01
   1.1387164e-01
   1.8256877e-01
  -1.6259440e-01
   2.0634008e-01
   2.4616695e-01
   1.4827425e-01
  -8.6663432e-02
   3.2407545e-01
   3.5649991e-01
  -4.9463182e-03
   1.3646343e-01
  -6.7225300e-02
  -8.8898446e-02
   3.3235256e-01
  -1.8702187e-01
  -1.1654725e-01
   4.3373848e-01
   1.2899658e-01
   1.5472484e-01
   4.0153249e-01
  -1.8341326e-01
   3.3171489e-01
   3.5565852e-01
  -1.3348934e-01
  -1.4140655e-01
   1.5905628e-01
  -1.4694939e-01
  -1.5156323e-01
   8.7627206e-02
   1.3359748e-01
  -5.0156641e-02
   4.7565555e-01
   3.5488529e-01
   5.7227183e-01
  -1.8933278e-02
   4.3047667e-01
   2.0283770e-01
   1.5770052e-01
  -1.0777294e-01
  -6.0314195e-02
  -2.8822777e-01
   2.2107893e-01
   4.9043262e-02
   7.5527175e-01
   1.6873039e+00
   1.6375439e+00
   1.7321512e-01
  -7.5295370e-01
  -2.4533784e-01
  -4.8076940e-01
   3.6771340e-01
   2.0605817e-01
  -3.1196256e-01
   2.9518247e-01
   3.0284647e-01
   1.9131498e-01
   3.4753414e-01
   5.9031144e-02
   2.3211109e-02
  -1.6372450e-01
   5.0125351e-01
   4.2712151e-01
  -1.4667016e-01
   3.6430437e-01
   3.7677667e-01
   2.2666966e-01
   3.4189826e-01
   3.0026992e-01
   3.8495992e-01
   1.0729161e-01
   3.8629987e-01
   1.7770274e-01
   1.3385651e-01
   4.7300371e-01
   4.8165860e-01
   5.3097970e-01
   1.3368002e-01
   4.0725714e-01
   3.6819225e-01
   2.0158963e-01
   4.5893240e-01
   3.6460251e-01
   1.7047411e-01
   3.4716610e-01
   2.9608141e-01
   5.1386766e-01
  -8.8822352e-02
   4.4279324e-01
   2.3180446e-01
  -8.6549497e-02
   4.9361397e-01
   4.0239875e-01
  -1.3691758e-01
  -8.4982015e-04
   7.6278958e-02
   2.2334264e-01
   4.1298715e-01
   5.0259606e-02
   2.6774193e-01
   4.4434249e-01
   5.4598879e-02
   1.9957408e-01
   3.8593346e-01
   3.5999167e-01
  -1.4017765e-01
  -1.0462244e-01
   1.7464689e-01
   2.8755570e-01
  -7.7159087e-02
   1.8727634e-02
  -2.1082857e-02
   5.9659368e-02
  -1.4019894e-01
   2.6218634e-01
  -1.9611564e-01
   3.4852601e-01
  -1.8715910e-01
   3.5747835e-01
   4.5452445e-01
   1.7110155e-01
   3.5425245e-01
   2.3869112e-01
   4.7696619e-01
   2.6324520e-01
   2.3877276e-01
   3.9093039e-01
   5.6395654e-03
   2.6373788e-01
  -1.3677059e-02
   7.6854497e-02
   2.9411526e-02
   1.0609543e-01
   2.8370857e-01
   1.2551154e+00
   1.7234900e+00
   1.2744154e+00
  -4.9827263e-01
  -2.0459083e-01
  -1.3450367e-01
   7.1107272e-03
  -2.3876061e-01
   2.5764475e-01
   1.9900839e-01
  -6.4626592e-03
  -1.1237270e-01
  -6.3260665e-02
   1.3366742e-01
   2.3906710e-01
   3.7625973e-01
  -6.5810478e-02
   1.6135053e-01
   1.3419514e-01
   2.4486268e-02
   4.2199833e-01
   4.7110618e-01
   2.2191951e-01
   2.1947735e-01
   3.6352255e-01
   2.4686469e-01
   1.8757143e-01
   3.5876723e-01
   2.8683632e-01
   2.5718795e-01
   5.2185163e-01
   7.1196982e-01
   1.3259335e-01
   5.9885555e-01
   3.1534721e-01
   1.7725564e-02
   3.6026603e-01
   3.0843979e-01
   7.9697017e-02
   2.1250219e-01
  -1.4022657e-01
  -1.3693508e-01
   4.0147572e-01
  -7.6987966e-02
   3.1974310e-01
   3.8013082e-01
   3.8669322e-01
   3.1931036e-01
   4.8529309e-01
   2.6364911e-02
   5.0486026e-01
   1.8593296e-01
   2.5711615e-01
   4.4963266e-01
  -5.4831185e-02
   4.7001962e-01
  -9.7573783e-02
   4.3176734e-01
   4.4293129e-01
  -9.9396406e-02
  -1.8385588e-01
  -3.4092918e-02
   1.5040184e-01
   3.0585940e-01
   1.9589424e-01
  -1.0436293e-02
   7.6676845e-02
   3.5830905e-01
   2.0669018e-01
  -5.0785546e-02
   1.2363841e-01
   3.8037811e-01
  -1.0946168e-01
   3.3261234e-01
  -1.0956787e-01
  -1.7828435e-01
  -2.1441535e-01
  -2.4417944e-01
   4.4094337e-01
   3.7038992e-01
  -2.0142358e-01
   2.1797449e-01
   4.4749750e-01
  -6.1918264e-02
  -1.0223070e-01
   1.2516653e-01
   3.8722204e-01
   3.8552746e-01
   3.1001872e-01
   5.7305430e-01
  -1.4365162e-01
   1.6621261e-01
  -8.9688100e-02
   3.7476593e-02
   6.7004326e-02
   1.0380550e-01
  -1.9082772e-01
  -1.1751816e-01
  -1.1638502e-01
   4.5989052e-01
   1.3582800e+00
   2.0060261e+00
   1.5101768e-01
  -3.5389762e-01
  -2.4237860e-01
  -2.6835666e-01
  -2.7976417e-02
   1.6915457e-01
  -1.2892679e-01
   3.5895166e-01
  -1.9020799e-01
   6.2857763e-02
  -2.4617004e-01
  -5.1453394e-02
   1.3035230e-04
   4.4874828e-01
  -4.4907146e-02
   1.6252505e-01
   1.6628918e-01
   4.5464152e-01
  -6.7685058e-02
   4.8707064e-01
   3.4869404e-01
   2.2005395e-02
   3.8989814e-01
   3.6217047e-01
   3.9922002e-01
   5.2221800e-01
   4.2908528e-01
   5.8965860e-01
   7.2608221e-01
   5.9494564e-01
   3.1685712e-01
   3.3698051e-02
   5.8400722e-01
   1.6040343e-01
   4.1181601e-01
   4.2325609e-01
   4.1359637e-01
   2.6771670e-01
   7.3182263e-02
   3.7956505e-01
   1.8428184e-01
   2.1169504e-01
   1.7687785e-01
   1.3765333e-01
  -3.5916260e-02
   3.7290896e-02
   4.4030094e-01
   4.3265965e-01
   1.5370121e-01
   2.3041731e-01
   2.9843089e-01
  -1.0590422e-01
   1.9424631e-01
  -6.2361659e-02
  -1.6949588e-01
  -1.6407175e-01
   4.4413269e-01
   1.6538473e-01
  -1.1863390e-01
   2.3392865e-01
   1.8999070e-01
   1.0005907e-02
   2.4190220e-01
   5.4369628e-02
  -7.4879751e-02
  -4.4937352e-02
   3.1980033e-02
  -2.0000339e-01
  -7.1957835e-04
   1.6803258e-01
   1.4753985e-01
  -1.8656925e-01
   1.5404679e-01
   1.0981787e-01
   2.6010054e-01
   3.9704265e-01
   2.4822165e-02
   5.7988700e-01
   3.8140222e-01
   6.5204975e-01
   3.8888042e-01
  -2.5627635e-02
  -1.6150075e-01
  -1.8246458e-01
  -1.9051834e-01
   4.1454380e-02
  -2.5454598e-01
  -2.7669492e-01
   3.5526610e-02
   3.9406492e-01
   2.2119749e-01
   1.0168411e+00
   1.5118194e+00
  -3.2779796e-02
  -3.4981451e-01
  -5.0028188e-01
  -2.1555670e-01
   9.5987691e-02
   3.0056448e-01
  -2.1721739e-01
  -9.9352382e-02
  -2.3886447e-01
  -1.9700362e-01
  -2.0987398e-01
  -1.3786207e-01
   3.0067840e-01
   4.0600515e-01
   1.8544825e-01
   4.1892722e-01
   1.7841240e-02
   1.6759950e-01
   1.6556884e-01
   4.3502515e-01
   6.2888473e-01
   1.5536516e-01
   5.4997393e-01
   4.0678466e-01
   6.0497626e-01
   6.6455909e-01
   2.3921145e-01
   7.1578851e-01
   6.7035574e-02
   4.0111529e-01
   6.1639801e-01
   5.0001277e-02
   2.0080340e-01
   1.0198670e-01
   2.5549900e-01
   4.3710219e-01
   1.1741405e-01
   2.7820831e-01
   5.1889482e-01
   4.1324357e-01
   4.1772133e-01
   5.0693149e-01
  -2.8425358e-02
   2.8771612e-01
   3.3335927e-01
   3.8715306e-01
   2.8020503e-01
   3.4558853e-02
  -1.7717252e-01
  -1.2729961e-01
  -1.2807312e-02
   3.7038351e-01
   4.1959023e-01
   9.3631407e-02
   4.6566873e-01
  -2.0262967e-01
   3.6535831e-01
   1.3375760e-01
   4.5161359e-01
   3.7787231e-01
  -1.2822354e-01
  -3.7708082e-03
  -1.9550418e-01
   6.9796780e-02
   5.2705522e-02
  -1.2345211e-02
   3.9406759e-01
   9.0202503e-02
   2.4120352e-01
   2.0931050e-01
   4.0133271e-01
   3.9734572e-02
   4.0260290e-01
   2.1155503e-01
   6.8141603e-02
   5.7366016e-01
   5.7983989e-01
  -8.8863164e-02
   1.7509638e-01
   2.2819729e-01
  -2.4868466e-01
  -3.3194722e-01
  -4.1859740e-02
  -2.5475609e-01
   2.8954062e-01
   5.6254962e-01
   1.2276495e+00
   1.8381198e+00
   1.0546374e+00
   1.0126843e-01
  -6.1552269e-01
  -7.2554392e-01
  -1.7497875e-01
   4.4719210e-02
   6.7764512e-02
   2.3507283e-01
   1.3068349e-01
   3.6762925e-01
   1.7659548e-01
   3.5995155e-01
  -1.4933157e-01
   3.4929443e-01
   4.8915633e-01
  -3.2739309e-03
   4.9379376e-01
   3.4835825e-01
   4.0246942e-01
   3.9999829e-01
   5.2767114e-01
   3.6572906e-01
   5.4325977e-01
   3.9252249e-01
   6.9498491e-01
   1.4660592e-01
   6.7665843e-01
   1.8765476e-01
   6.0506086e-01
   3.5669920e-01
   4.1443295e-01
   2.2503782e-01
   2.1159343e-01
   4.2130582e-01
   5.1886501e-01
   4.5545595e-01
   2.7213057e-01
   5.3277583e-01
   2.9425794e-01
   3.8446779e-01
   4.4435665e-01
  -2.0978831e-02
  -9.3666859e-02
   4.1024908e-01
   1.2761782e-01
   3.0947724e-01
   4.6125463e-01
   2.3124670e-02
   1.9113031e-02
   1.6538126e-01
   1.5742181e-01
   2.3391579e-01
   2.0331061e-01
  -1.2150082e-01
   6.3233497e-02
   1.9056974e-02
  -1.6307601e-01
  -6.8825234e-02
   4.5181756e-01
   3.9731283e-01
   3.3437130e-01
  -1.4955682e-01
   1.4609849e-01
  -2.1643188e-01
   2.2948889e-01
   3.3151797e-01
   3.9392310e-01
  -1.4599482e-01
   2.9385054e-02
   4.3191178e-01
   2.2208130e-01
   3.1546314e-01
   6.6081262e-01
   6.8288437e-01
  -9.0492995e-02
   8.2046667e-02
   1.9539238e-01
   2.3963157e-01
   3.7518783e-01
   1.3279821e-01
  -1.5249464e-01
   3.4203332e-01
   2.6662554e-01
   2.3147243e-01
   1.1895142e+00
   1.6770816e+00
   1.2470587e+00
  -2.0113805e-01
  -3.1145107e-01
  -1.3832166e-01
  -2.0839158e-01
   1.7571292e-01
   3.4030094e-01
   3.2435386e-01
  -2.2649975e-01
  -2.6015866e-01
   1.2720746e-01
  -2.4695745e-01
  -8.9612236e-02
  -2.1394756e-01
   3.6618462e-01
  -5.4806322e-02
   5.1808923e-01
   4.1580804e-01
   4.6826932e-01
   2.1492107e-01
   1.8185681e-01
   4.7292549e-01
   6.5270113e-01
   6.5701318e-01
   6.8971977e-01
   6.7230462e-01
   4.1141755e-01
   4.2380781e-01
   9.7580935e-02
   3.5675155e-01
   4.1377115e-01
   1.8958428e-02
   1.6256650e-01
   6.6780584e-02
   2.6807863e-01
   1.5174352e-01
   1.2255721e-01
  -1.2004655e-01
   1.3808498e-02
  -2.0366371e-03
   3.4342241e-01
   2.9326844e-01
  -7.9483115e-02
  -8.2439689e-02
  -1.2329813e-01
   3.2680878e-01
   2.1646253e-01
   3.9123415e-01
  -1.3352184e-01
  -2.8199241e-02
  -1.6988884e-01
   2.4682865e-01
  -2.8536944e-02
   2.7866514e-01
  -1.3150278e-01
   1.4910483e-01
  -1.8555385e-01
  -1.6674667e-01
   1.1061015e-01
   2.6982422e-01
   1.7333039e-01
  -1.0415413e-01
   1.9057059e-01
   2.5184109e-01
  -3.2167989e-02
   3.2581988e-01
  -1.0290063e-01
  -8.5865403e-03
   2.8382617e-01
   4.8529392e-01
   5.0561439e-01
   4.5562101e-01
  -5.8208551e-03
   5.5376558e-01
   3.8734242e-01
   8.7153884e-02
   3.2405398e-01
   1.1973205e-01
  -2.0267421e-01
  -2.3440363e-01
   2.4548757e-01
  -1.8363599e-01
   1.1533654e-01
   9.0286674e-01
   1.8222146e+00
   8.6762265e-01
   4.9593291e-02
  -4.9187352e-01
  -1.7723293e-01
  -2.0218285e-01
  -2.4382059e-01
   2.8450185e-01
   1.8710628e-01
   1.1039983e-01
   2.2670359e-01
   2.4049098e-01
   1.1149750e-01
   3.1858871e-01
   2.4220657e-01
   1.8255383e-01
   2.9814103e-01
   5.2163554e-01
   3.1244752e-01
   4.6142732e-01
   6.5324612e-02
   4.8909559e-01
   1.5818300e-01
   3.3960533e-01
   6.2171574e-01
   3.5809124e-01
   1.1970807e-01
   2.3887694e-01
   1.3816275e-01
   5.4058652e-01
   2.2441678e-01
   3.0211792e-01
   8.3497890e-02
   5.3734494e-01
   1.2694898e-01
   1.8388283e-03
   4.0503629e-01
  -1.3959241e-01
  -1.3386265e-01
   2.0417773e-01
   5.0167458e-01
   2.6988080e-01
   2.6416715e-01
   2.8406261e-01
   4.8872043e-01
  -1.3138183e-02
   4.4282749e-01
  -1.5241757e-01
   3.8184743e-01
  -1.7375361e-01
   8.8974336e-02
   2.0472362e-01
  -7.3773901e-02
   3.3074558e-01
  -6.3814248e-02
  -1.0940431e-01
   2.0820764e-01
   4.3227004e-01
   2.3663806e-01
  -9.6016514e-02
   4.1307946e-01
   2.4716251e-02
  -2.0692200e-01
  -8.7256202e-02
   4.0343458e-01
   3.6191738e-01
   1.7636548e-01
   1.4119943e-01
  -2.4057734e-01
  -1.2752437e-01
  -1.0676959e-03
   4.6746880e-01
   1.6503643e-01
   2.3137060e-01
   1.8197402e-01
   1.2630707e-01
   1.6847609e-01
  -5.6552988e-02
   1.8100851e-01
   1.1915071e-01
   1.4370130e-01
  -1.0357511e-01
   3.2857087e-01
  -2.0055466e-01
   2.1762932e-01
   4.1700913e-01
   1.6601902e+00
   1.8192600e+00
   4.0920595e-01
  -6.3914900e-01
  -1.6708669e-01
  -2.0717245e-02
   3.0213330e-03
  -4.0603576e-02
  -4.4999284e-02
  -5.7703349e-03
  -2.4820172e-02
  -2.4012651e-01
   4.7181410e-02
   1.6856365e-01
  -1.2646191e-02
   6.8665463e-02
  -1.1026701e-01
   1.6285066e-01
   6.3731589e-02
  -1.0454812e-01
   5.4315478e-01
   9.6290871e-02
   4.7263402e-01
   1.2716576e-01
   7.3112315e-01
   4.1097512e-01
   6.9310661e-01
   5.7767397e-01
   4.2716525e-01
   4.9419872e-01
   2.9866010e-01
   3.8251727e-01
   5.4201680e-01
   1.3575836e-01
   1.0907272e-01
   1.1790947e-01
   4.7239305e-01
  -8.0455713e-02
  -6.0940397e-03
   5.6169787e-02
   9.5312789e-02
   3.6297901e-01
   4.7469204e-01
  -1.1437877e-01
  -9.5727184e-02
  -1.4556993e-01
  -3.0363682e-02
  -1.5229093e-01
   1.4745096e-01
  -1.0309053e-02
   4.5327312e-01
   3.0542300e-01
   1.3639956e-01
  -1.5099242e-01
   1.6040987e-01
   2.5560680e-01
   2.0977827e-01
   7.8073320e-02
  -1.4804657e-01
   3.5103293e-01
  -5.6076272e-02
   1.3084305e-01
   3.2731864e-01
   1.3131434e-01
  -2.3669186e-02
   3.7279689e-01
  -2.0036832e-01
   2.6599279e-01
   3.7508609e-01
   7.9307910e-02
   7.3039529e-02
  -1.4283821e-01
   4.5275544e-01
   4.5788432e-01
   2.2155354e-01
   1.5447357e-01
   4.8130313e-02
   6.4733144e-01
  -4.1552673e-02
   1.9175692e-05
   4.1396713e-02
  -1.5530873e-01
  -2.0925696e-01
   1.7013240e-01
  -1.2823987e-02
  -9.8767935e-02
  -1.7466993e-01
  -5.9796264e-02
   6.4421484e-02
   9.9159041e-01
   1.5943983e+00
   9.8067842e-01
  -1.6291747e-01
  -6.1188728e-01
  -1.8419471e-01
  -1.2886476e-01
  -1.3556614e-01
  -1.2840886e-01
   1.6862208e-01
   7.8550387e-02
  -2.3159488e-01
  -2.3122517e-01
  -7.9201419e-02
   7.2643503e-02
  -1.6297807e-02
   2.8484276e-01
   4.9441635e-01
   3.9648458e-01
   3.2001863e-01
   4.3723360e-01
   4.5750340e-01
   3.7995873e-01
   5.4588146e-01
   3.0448886e-01
   4.6845517e-01
   2.2796005e-01
   2.4790348e-01
   7.3299610e-02
   3.0288836e-01
   1.4903337e-01
   3.1285535e-01
   1.1193355e-01
   5.4009655e-01
   4.4223453e-01
  -3.0991423e-02
   4.4924698e-01
   1.8786345e-02
  -6.5328484e-02
   3.1376005e-01
   5.1802440e-01
   4.3002045e-01
   2.9110643e-01
   7.9621714e-02
   4.3995244e-02
   1.4390545e-01
   7.5052481e-02
   4.4428094e-01
  -1.7083850e-01
   3.1737162e-01
   5.1505090e-02
   2.3353187e-02
   2.5853876e-01
   4.3967427e-01
   4.1502708e-01
   4.8790446e-01
  -1.6409889e-01
  -1.2438117e-01
   4.6198691e-01
  -1.5193795e-01
   2.5020676e-01
   4.3017427e-01
  -1.2582648e-01
   4.0399612e-01
  -2.1125841e-01
   4.7913521e-03
  -6.8271560e-02
   4.6911188e-01
   3.5753847e-01
   3.2608086e-01
   3.8512014e-01
   3.2600150e-01
   3.4048839e-01
  -5.3012562e-03
   3.1485792e-01
   3.1508452e-01
   8.2369555e-02
   1.3610394e-01
   6.3599167e-01
   3.7523721e-02
   4.5240070e-01
   3.1091365e-02
   3.9685920e-01
  -4.2280663e-02
  -2.4529158e-01
   1.1861488e-01
  -2.6236689e-01
   2.3430793e-01
   2.8201411e-01
  -1.1127268e-01
   2.2208250e-01
   8.1471915e-01
   1.6770836e+00
   7.7691262e-01
  -1.8346487e-01
  -6.0751802e-01
  -1.8473519e-01
   2.0715685e-01
  -2.4194449e-01
   1.1051413e-01
   2.9424473e-01
   2.0782946e-01
  -1.0993358e-01
  -1.0106080e-02
   1.3179725e-01
  -1.8270871e-01
   6.2305238e-02
  -2.3749759e-02
   1.6227461e-01
   4.1924053e-01
   1.2948824e-01
   2.6758008e-01
  -1.3785442e-02
   5.9136328e-01
   1.2033861e-01
   2.7744287e-01
   4.8719434e-01
   5.7085987e-01
   1.5114750e-01
   4.1216505e-01
   7.5673615e-01
   5.4032626e-01
   7.1396943e-02
   3.5315604e-02
   3.0380889e-01
   2.4261750e-01
   2.2575895e-01
   1.1236406e-03
   1.2745926e-01
   4.8150487e-01
   3.7104580e-01
   1.4173871e-01
   4.8514699e-01
  -7.8986955e-02
  -2.3073830e-02
   5.0760835e-01
  -8.9408913e-02
   1.0162280e-01
   3.7452910e-02
  -1.3384439e-01
  -5.8780331e-02
   9.7232932e-02
   1.0041016e-02
   3.0148849e-01
  -4.2210191e-02
   4.4662742e-01
  -1.1879151e-03
  -1.0157173e-01
   1.7384220e-01
   3.3336569e-01
   9.0694467e-02
   4.6705567e-01
   8.5591910e-02
  -6.9113530e-03
  -5.2464381e-02
   4.3255456e-01
  -8.4007989e-02
   5.1900172e-02
  -8.2860713e-02
  -4.1012328e-02
   4.2877694e-02
   4.6338205e-01
   3.9768630e-01
   1.6026195e-01
   1.5239625e-01
  -1.8463915e-01
   1.8360236e-01
   4.5867566e-01
   1.8927029e-01
   1.5382820e-01
   5.3071237e-02
   4.7651163e-01
   6.3913382e-01
   3.3959239e-01
   1.0987329e-01
   2.5329741e-01
   7.7055806e-02
   1.8646978e-01
   9.3537897e-02
   2.7499331e-02
   2.8655229e-01
   1.0866097e-01
   5.4216424e-01
   1.3467749e+00
   1.9075761e+00
   2.9067247e-01
  -2.1160825e-01
  -4.8863305e-01
  -3.9565790e-01
  -7.5830588e-02
   1.4621139e-01
  -1.4631444e-01
   3.8018894e-01
   3.9785268e-01
  -9.2460762e-02
  -2.3220593e-02
   4.4238380e-01
   3.2714831e-01
   3.3131038e-01
   2.5751982e-01
   3.8287341e-01
   1.6351934e-01
   4.4627971e-01
  -6.4893531e-03
   2.7913007e-01
   4.5599026e-01
   1.4853679e-01
   3.7716048e-01
   2.7737288e-01
   5.9605478e-01
   5.1442021e-01
   7.4781480e-01
   7.0058396e-01
   4.2819528e-01
   6.5930522e-02
   2.7447309e-01
   7.6382671e-02
   6.0672839e-01
   2.4905225e-01
   4.8447511e-01
   3.1354854e-01
   1.7114520e-01
  -9.3540544e-02
   5.2223251e-01
   2.8383099e-01
  -4.1049778e-02
   1.1359991e-01
   4.5249134e-01
   2.0704248e-01
   1.9530079e-01
   1.1443906e-01
  -7.1661296e-02
  -2.0826781e-02
  -1.0715645e-02
   1.5035748e-01
   1.6158149e-01
   7.0291768e-02
   4.0866042e-01
  -1.6721214e-02
   2.1951164e-01
  -3.3185516e-02
  -6.1662656e-02
   1.5383664e-02
   3.2879185e-01
   1.3189224e-01
   1.6268219e-01
  -7.8569161e-02
  -1.7901210e-01
   2.0587053e-01
   4.3071030e-01
  -1.7918735e-01
  -1.1889305e-01
  -2.4383593e-01
   3.2640031e-01
   9.1521147e-02
   1.2254633e-01
   4.9555313e-01
   1.6156511e-01
   2.8545183e-01
   5.0885474e-01
   2.4876975e-02
   2.4612611e-01
   1.7035698e-01
   4.0863747e-01
   1.4959768e-01
  -2.6830198e-01
   7.9311365e-02
  -2.3558091e-01
  -6.6196053e-02
  -2.2870968e-02
   4.6211937e-01
   9.5579131e-01
   1.7007951e+00
   9.2766714e-01
   1.1924117e-02
  -2.5592946e-01
  -6.3421374e-01
  -6.3805118e-03
  -2.5399585e-01
  -2.2733205e-02
   2.0824025e-01
  -2.2031559e-01
   2.9134366e-01
   1.8083951e-01
   3.8301331e-01
   1.9963192e-01
   7.9574286e-02
   2.5763164e-01
   1.7182106e-01
  -8.5046646e-02
   3.2544255e-01
   5.6449118e-01
   2.6776328e-01
   3.8625489e-01
   4.0832084e-01
   1.8195769e-01
   5.1716908e-01
   1.6384356e-01
   6.0122470e-01
   2.1837693e-01
   1.8761780e-01
   5.6724945e-01
   2.1354613e-01
   1.1314144e-01
   3.9223979e-01
   9.4710117e-02
   7.3262522e-02
   4.5991845e-01
   1.3235421e-01
  -7.7644508e-02
  -1.5160771e-02
   9.8281227e-02
   4.6129660e-01
   2.6395238e-01
   2.9783071e-02
   9.9993656e-02
   4.7036283e-01
   4.6944661e-01
   1.4763208e-01
   1.2251908e-02
   2.0671701e-01
  -6.0770301e-02
   4.1081813e-01
  -3.8599984e-02
  -8.3319571e-02
  -1.8729723e-01
   1.4688349e-02
   1.6759184e-01
   3.6113656e-01
   3.3692963e-01
  -1.9896812e-01
   3.8989723e-02
   1.2823443e-01
   9.5151711e-02
  -1.9189562e-01
   2.0079552e-01
   1.7850676e-01
  -2.6960670e-02
   7.8828744e-02
  -1.4050504e-01
  -2.1354349e-02
   2.9679268e-01
  -2.0146871e-01
  -5.7541352e-02
   4.6618567e-01
   6.6648874e-02
  -1.2427487e-01
   3.7412438e-01
  -2.1428021e-01
  -1.7503319e-01
  -6.0670338e-02
   3.1049232e-01
   4.6752528e-01
   3.0091510e-02
   3.4999514e-01
   5.3182434e-01
   6.6291362e-01
   5.5567192e-01
   1.4425498e-01
   4.6950152e-01
   1.2444319e-01
  -2.0262983e-01
  -1.1453279e-01
   1.3535733e-01
   3.3740730e-01
   3.1172931e-01
   7.7903004e-02
   6.9274466e-01
   1.2163334e+00
   1.5172312e+00
   2.4417415e-01
  -7.6915835e-01
  -1.7136923e-01
  -2.3875820e-01
  -2.3658711e-01
  -2.1511136e-01
  -1.2219822e-01
  -1.4548429e-01
   3.2581480e-01
   2.4830780e-01
  -1.5328464e-02
   2.7047579e-03
   1.8975146e-01
   1.5291747e-01
   5.1809060e-02
   4.3158490e-01
   4.9244895e-02
   5.3203915e-01
   1.8115181e-01
   4.1140055e-01
   1.6574841e-01
   1.7798712e-02
   6.9164420e-01
   4.1698087e-01
   5.2800954e-01
   4.7844927e-01
   5.8377256e-01
   7.4007320e-01
   5.5750288e-01
   6.1824529e-01
   6.8739675e-01
   4.8971529e-01
   3.0307929e-02
   1.2647904e-01
  -1.0679827e-01
   3.4922319e-01
   5.2915336e-01
   3.6834243e-01
   3.7872331e-01
  -1.9791340e-02
   1.1175370e-01
   2.6520739e-01
   1.8490017e-01
   4.3653149e-01
   4.1872054e-01
   7.4661512e-02
   1.6605994e-01
   3.0463771e-01
   2.4451019e-01
  -8.8091873e-02
  -1.6353342e-01
  -9.9616499e-02
  -3.0913983e-02
   1.2217420e-01
   1.8193515e-01
   4.9602111e-01
   3.0487617e-01
   4.7875833e-01
  -1.6968053e-01
   2.3349980e-01
   4.6494002e-01
  -2.3396378e-02
   4.5722739e-01
   4.1419081e-01
  -8.1134660e-02
   2.9636208e-01
  -9.5016611e-02
  -1.4883627e-01
   7.4282844e-03
   1.6669748e-02
   6.1791695e-02
  -2.8755406e-02
   2.2249347e-03
   2.7526663e-01
   4.3870760e-01
  -1.7110890e-01
  -2.1902934e-02
   1.8471839e-01
   3.5729510e-01
   3.1488154e-01
   1.5742570e-01
  -1.9226416e-01
   3.0588633e-01
   4.7660172e-01
  -6.6881403e-02
   2.0481292e-01
   2.0789638e-01
   2.7006156e-01
   9.1477054e-02
   4.9882282e-01
  -8.1852801e-02
  -1.4561727e-01
   2.9253630e-01
   9.2338107e-02
  -5.9159365e-02
  -9.3627377e-02
   9.4694259e-02
   4.8023994e-01
   1.2592498e+00
   1.9577648e+00
   1.9919287e-01
  -3.8593964e-01
  -8.2169750e-01
  -1.1536339e-01
   2.0358027e-01
   7.2326376e-02
  -2.9177258e-01
  -3.0280201e-01
   4.0416388e-01
  -1.5697890e-01
   3.0318720e-01
  -1.0502071e-02
   9.4692076e-02
  -1.4117128e-01
   3.5866250e-01
   1.3417193e-01
   6.4715210e-02
   1.2260576e-01
   2.4441268e-01
   2.2354673e-01
   4.4584700e-01
   4.6419956e-01
   2.1444470e-02
   8.6909290e-02
   3.6403678e-01
   5.9085515e-01
   6.3329609e-01
   4.8851446e-01
   3.0693756e-01
   6.5775440e-01
   1.8213584e-01
   2.7517047e-03
   4.3545547e-01
   4.3818914e-01
   5.0524003e-01
   3.9817096e-01
   5.1919263e-01
   2.1136850e-01
   5.2818276e-01
   5.4104897e-01
   2.1176814e-01
   4.3303090e-01
   4.7487816e-01
   4.9810044e-01
   1.6656875e-01
   3.5761473e-01
   4.7333931e-01
   3.8365324e-01
   4.6241760e-01
   1.0899377e-01
   3.8982429e-01
   4.9253116e-01
   4.4812261e-02
  -9.4418216e-02
   3.7224087e-01
   2.0194531e-01
   4.6911345e-01
   1.2335587e-01
  -3.1588716e-02
   2.6068217e-01
   4.2604942e-01
   2.2283737e-01
   1.6139277e-03
   1.1420291e-01
   6.6042992e-02
  -1.7043836e-01
   1.8515517e-01
   3.7607388e-01
   1.6305805e-01
  -1.4648250e-02
   4.0360723e-01
   3.0169517e-01
   3.3372878e-01
   1.7491713e-01
   1.6067324e-01
  -9.6069702e-03
   2.0393688e-01
   5.6483674e-01
   2.3392395e-01
   4.4485542e-01
   3.9150453e-01
   4.9303615e-01
   3.8446129e-02
  -1.0630096e-02
  -1.1110473e-01
   1.8145589e-01
   2.7438735e-01
   2.0266775e-01
   2.0531209e-01
  -2.8153374e-01
   3.9891637e-02
   6.5290030e-01
   1.3507651e+00
   1.5046373e+00
   3.5565917e-01
  -4.7211666e-01
  -3.7090449e-01
  -3.1128137e-01
  -3.9396319e-01
  -2.3694900e-02
   2.7443516e-02
   2.4409111e-01
   3.1601475e-01
   1.1771880e-01
  -1.5057614e-01
   1.7526910e-01
   2.9826233e-01
   8.4771221e-02
  -2.2563042e-02
   2.0629005e-02
   5.7006610e-01
   2.2134433e-01
   4.6921731e-01
   3.6203631e-01
   5.4723596e-01
   6.3860701e-01
   4.8496588e-01
   4.7403140e-01
   5.0224965e-01
   8.8125519e-02
   7.1134694e-01
   6.9368771e-01
   5.4596449e-01
   2.5182421e-01
   2.3499858e-01
   1.7853990e-02
   2.8835591e-01
   3.2559080e-01
   3.9343522e-01
  -1.3554847e-01
  -3.6787361e-02
   1.5865640e-01
   9.7625566e-02
   5.1575132e-01
   4.8681703e-01
   5.0490597e-01
  -1.6189012e-02
  -4.8999255e-02
   2.2441872e-01
   2.3420579e-01
   3.2316588e-01
   1.3183719e-02
   7.9786127e-02
   3.9886113e-02
  -1.2066304e-01
  -1.6512697e-01
   1.6325363e-01
  -8.6177957e-03
   4.6386784e-01
   2.8041577e-01
   1.7436657e-01
   2.7093008e-01
   4.4243792e-01
   6.7715217e-02
   4.1790678e-01
   3.8689028e-01
   3.2840762e-01
  -2.0270649e-01
   5.1943026e-03
  -3.4299298e-02
   1.8903593e-01
  -1.6104837e-01
   7.0429956e-02
   4.5891996e-01
   4.8739114e-02
  -6.0823715e-02
   7.5811139e-01
   4.0707167e-01
   7.4383015e-02
   1.5015771e-01
   3.2296105e-01
   1.2396241e-01
  -2.9817942e-02
   5.0798113e-02
  -2.1000761e-01
   2.1941782e-01
   1.7658267e-01
   2.2428097e-01
   1.0867254e+00
   1.4112250e+00
   1.1611117e+00
  -2.4908171e-01
  -5.5556246e-01
  -3.6431493e-01
  -4.1016303e-01
  -2.9310496e-01
  -8.1037989e-02
  -4.8839039e-03
   2.2828291e-01
  -2.0072390e-01
   3.5893446e-01
  -1.2291354e-01
   7.8086877e-03
   6.8725721e-02
   4.6865032e-01
  -8.3345459e-02
   4.6031015e-01
   2.4856997e-01
   1.1770735e-01
   5.6252807e-01
   3.2708745e-01
   3.2160477e-01
   5.6313773e-01
   2.9010100e-01
   7.4720321e-01
   4.5133610e-01
   6.2132057e-01
   5.3350424e-01
   2.1103192e-01
   6.0160095e-01
   5.9316442e-01
  -2.3625390e-02
   3.3721769e-01
   6.3551202e-02
   3.4992230e-01
   1.7371019e-01
   3.8183499e-01
   1.7426845e-01
   2.5537471e-01
  -1.3890040e-02
   7.1874430e-02
   5.1024524e-03
   4.1813691e-01
   4.8855976e-01
   2.2848411e-01
   4.2651631e-01
   4.7352461e-01
   2.3474988e-01
   3.2600921e-01
   5.5220059e-02
   9.4434700e-02
  -1.9352415e-01
   3.1377272e-01
  -7.5560442e-03
   3.4615643e-01
   4.3590217e-01
   9.5635252e-02
  -3.9649856e-03
  -2.1038918e-01
   3.7637622e-01
   2.2997157e-01
   3.8123096e-02
   3.9911196e-01
   2.5308126e-01
   2.4613997e-01
   2.0668869e-01
   4.7525884e-01
  -6.1587789e-02
   3.4129544e-01
   2.0394343e-01
   2.2487666e-02
  -7.8092163e-02
   4.3213804e-01
  -2.3442489e-01
   3.1695621e-01
   1.3097807e-01
  -3.6056757e-01
  -3.5558770e-01
   1.8827031e-01
   1.9303803e-01
   1.1466099e+00
   1.3603143e+00
   1.3700194e+00
  -2.2517724e-01
  -2.2542199e-01
  -1.2771451e-01
  -1.1150347e-01
   3.1458516e-01
   1.2550975e-01
   2.3170359e-01
   9.2659039e-02
  -1.5019083e-01
   3.4491948e-01
   8.0914731e-02
   4.5476820e-01
   2.9584349e-02
  -7.0297881e-02
   3.3135583e-01
   5.9767465e-02
  -5.2361550e-02
   5.1732498e-01
   4.1045630e-01
   6.3316954e-01
   2.9722568e-01
   6.1121722e-01
   6.1353653e-01
   3.3739862e-01
   7.2975445e-01
   2.9187452e-01
   2.2052357e-01
   3.9909481e-01
   1.9493191e-01
  -1.3726083e-02
   3.6063714e-01
   3.3772522e-01
   3.0706977e-01
   3.0613539e-01
   4.1522599e-01
  -1.5914025e-01
   2.7625062e-01
   1.9447261e-01
   2.8279490e-01
   4.3150928e-01
  -3.6154553e-03
  -1.3746271e-01
   1.4038158e-02
   3.4691082e-01
   1.3329102e-01
   9.0343989e-02
  -1.1272706e-01
  -4.5449335e-02
   2.3804169e-01
   3.4093851e-01
   2.4312471e-01
   1.4280489e-01
   4.3503901e-01
   6.6998107e-02
   7.4477598e-02
  -6.9130437e-02
   1.9263721e-01
   2.8972521e-02
  -6.1025931e-02
   1.4777204e-01
   2.7275565e-01
   4.1352704e-01
   2.6023734e-01
   1.6882294e-01
   9.3150822e-02
  -5.3799296e-02
  -3.4001943e-03
   3.6894792e-01
   6.6799797e-01
   3.9346530e-01
   4.8249380e-01
  -1.5029801e-02
   2.6701794e-01
  -4.0955013e-02
  -3.4875888e-01
   2.0761136e-01
  -7.3728415e-02
  -2.9453546e-01
   2.4789508e-01
   2.1846386e-02
   7.1982105e-01
   1.3361203e+00
   1.8106968e+00
  -3.0259814e-02
  -6.3499151e-01
  -4.5572052e-01
  -2.5327614e-01
  -1.2465871e-01
   2.0548751e-01
  -1.3876937e-01
   3.6082311e-01
   3.5438074e-01
  -1.0516659e-01
  -1.2087847e-01
  -9.0721647e-02
  -6.4347173e-02
  -4.9573577e-02
   1.1246411e-01
   4.0080199e-01
   2.8964963e-01
   1.3296679e-02
   4.7820690e-01
   6.3245907e-01
   9.6502047e-02
   6.1456705e-01
   2.1943195e-01
   3.6423403e-01
   3.1302059e-01
   3.9113267e-01
   3.2146714e-01
   1.2651356e-01
   5.1202231e-01
   3.1716098e-02
   8.7826861e-02
   2.6149027e-01
   4.9852584e-02
   1.2074640e-01
   2.3488321e-01
  -1.5364587e-01
   4.3259274e-01
   4.0769096e-01
  -1.3361102e-01
  -5.8998051e-02
  -1.7884656e-01
   2.3472849e-01
   3.2720625e-01
   3.4791277e-01
  -4.3589040e-02
   4.7791217e-01
   1.5563135e-01
  -1.5474933e-01
  -7.8591669e-02
   3.2351031e-03
   3.8775207e-01
  -1.8371734e-01
   2.5127175e-02
   2.2482317e-01
   3.5578785e-01
  -1.7753108e-01
   3.1477427e-01
  -1.9803474e-01
  -2.6378683e-02
  -5.3413733e-02
   3.9046760e-01
   1.9984018e-01
   9.7528669e-02
   2.6655996e-01
  -1.7561099e-01
   3.8500881e-01
   1.0651441e-01
  -2.4536231e-01
  -1.2523756e-01
   4.3460507e-03
  -9.7110439e-02
   3.3308863e-01
  -3.9656203e-02
   3.7053344e-01
   2.8701813e-01
   4.5464509e-02
   2.0880110e-01
   1.6106051e-03
   3.1934436e-01
  -3.4541092e-01
   4.0478051e-02
  -9.1646233e-02
  -9.9816018e-02
  -3.6997026e-01
   4.4623138e-01
   1.1633127e+00
   1.8958853e+00
   8.6397958e-01
  -4.5740306e-01
  -7.5516902e-01
  -4.3821440e-01
   9.8590571e-02
  -2.3739262e-01
  -2.9260234e-02
  -2.9377700e-01
  -2.5554863e-01
   1.9191320e-01
   2.9672402e-01
   3.6175975e-01
   3.9307022e-01
   2.1022044e-01
  -9.3447801e-02
  -1.4203652e-01
   3.8370994e-01
   3.8389522e-01
   3.3250227e-01
   4.2468068e-01
   1.0138421e-01
   5.5073163e-01
   7.2139615e-01
   3.4825826e-01
   2.3112273e-01
   4.0016465e-01
   5.6232082e-01
   6.8066400e-01
   7.4068757e-01
   1.2403506e-01
   4.8653485e-01
   4.9027245e-03
  -8.7017188e-03
  -2.9396164e-02
   2.0426427e-01
   1.8593272e-01
   1.4076476e-01
   3.9233058e-01
   1.8882385e-01
   2.8671797e-01
   1.8182390e-01
   5.1328684e-02
   9.5690808e-03
   5.1495992e-01
  -6.6197210e-03
   3.7624667e-01
   1.4119628e-01
   2.2757638e-02
   2.1956577e-01
  -2.1204645e-01
  -1.7285902e-01
   4.2206463e-01
   3.9232142e-01
   3.5504246e-01
   4.0249834e-01
   2.3829597e-01
   2.9678614e-01
   2.2337214e-01
  -1.0803648e-01
   7.9395139e-02
   2.9990340e-01
  -2.7601087e-01
   1.3650549e-01
   4.0834162e-02
  -2.2658934e-01
   5.1850479e-02
   3.2515321e-01
   1.5017630e-01
   2.5147142e-01
   4.0226068e-01
   9.9903675e-03
   3.7442619e-01
   4.7321970e-01
   2.0044981e-01
   3.8720012e-01
   4.1892847e-01
   2.1533360e-01
  -4.9706351e-02
  -2.9855845e-02
  -9.7301262e-03
  -3.4243632e-01
   1.5728713e-01
  -3.1473744e-01
  -4.6086506e-02
  -1.8361785e-02
   3.1375483e-01
   8.8697290e-01
   1.2633151e+00
   9.1029518e-01
  -3.6225812e-01
  -4.2257465e-01
  -5.3613845e-01
  -4.7099472e-02
  -1.1455127e-02
  -5.5912024e-02
  -8.9949756e-02
  -2.4168422e-01
  -3.9565860e-02
  -1.4687856e-02
   6.3319436e-02
   3.0295181e-01
   2.4495116e-01
   3.7578605e-01
   1.5948811e-01
   4.2937105e-01
   1.7661402e-01
   6.6156186e-02
   3.4635830e-01
   3.4959037e-01
   3.5944311e-01
   2.8090864e-01
   3.2987130e-01
   1.4148998e-01
   2.6498602e-01
   8.5544625e-02
   7.0826606e-01
   4.7181296e-01
   6.6458070e-01
   2.6982279e-01
   2.1532898e-01
   2.6791252e-01
   2.7749680e-01
   2.0446687e-01
   2.4107490e-01
  -8.7040241e-02
   3.6305954e-01
   2.8069773e-01
   5.5616469e-02
   3.8627264e-02
   1.6741360e-02
  -7.0606344e-02
   4.3720216e-02
   4.0275814e-01
  -6.9066537e-03
  -1.4198504e-01
   1.5081122e-01
  -1.2503598e-01
   6.1248802e-02
  -1.5178035e-01
   2.8870911e-01
   1.3921184e-02
   1.6565022e-01
   2.2235107e-01
   2.1589878e-01
   2.5470319e-01
  -4.0167888e-02
  -1.7616093e-01
   1.8737478e-01
  -6.4570642e-02
   3.6485667e-01
  -3.5976046e-02
   2.2433073e-01
  -3.0007338e-02
  -1.0887558e-02
   1.4829991e-01
   3.5724109e-01
  -7.1263569e-02
   4.1839930e-01
   3.4058636e-01
  -1.3844627e-01
   4.4890146e-01
   4.3524102e-01
   3.7699769e-01
   1.6465116e-01
   8.6164047e-02
  -1.5771496e-01
   9.8924274e-02
   1.2810116e-01
   4.3390255e-02
  -9.0546982e-02
   3.1222214e-01
  -1.3474040e-01
   2.6123972e-01
   8.8806422e-03
   1.1865160e+00
   1.9831989e+00
   6.6475152e-01
  -3.7527282e-01
  -4.2386468e-01
  -1.0502318e-01
   1.9847740e-01
  -1.1186617e-01
   8.2245275e-02
   2.7602020e-01
   1.1969871e-01
   4.8010221e-02
   3.1959638e-01
   2.0080748e-01
  -1.6846102e-01
   1.2342549e-01
  -1.7957415e-01
   1.1678918e-01
   4.6693880e-01
  -1.1186193e-01
   5.5845619e-01
   5.3042132e-02
   2.3066479e-01
   1.5034961e-01
   1.0854546e-01
   3.6950709e-01
   2.8083413e-01
   1.5209520e-01
   4.4569172e-01
   2.4872415e-01
   3.0607408e-01
   4.1708956e-01
   3.6490556e-01
   2.2610319e-01
   1.6101389e-01
   1.2258140e-01
   3.2579196e-02
  -5.3039444e-02
  -9.9926795e-02
  -1.8309000e-01
   3.4804084e-01
   1.6930026e-01
   3.3126112e-01
   3.5850680e-01
   8.9526858e-03
  -4.3823949e-02
  -1.2950303e-01
   1.0830694e-01
   2.9199987e-01
   4.9457345e-01
   1.8650888e-01
  -1.8398236e-01
   1.9280893e-01
  -3.4880356e-02
   1.4474440e-01
   7.5484808e-02
  -1.5784431e-01
   2.6022415e-02
   2.8539820e-01
   3.9282457e-01
   2.2980764e-01
   4.3430676e-01
  -1.5186328e-01
   2.1226236e-01
   3.5518974e-02
   1.3831654e-01
  -1.1652800e-01
   1.0326247e-02
  -1.7301405e-02
  -5.9854062e-03
   1.5559177e-02
  -1.8486273e-01
   9.5180152e-02
   2.9112326e-01
  -2.0309890e-02
   1.0816143e-01
  -1.0824628e-01
   2.6194940e-01
   2.3486345e-01
   1.8768286e-01
   6.1328410e-01
   1.6970096e-01
   1.7365801e-01
  -4.4546184e-02
   3.3855622e-01
  -1.2492432e-01
   1.1443958e-03
  -4.6273030e-03
   2.6991252e-01
   2.8982299e-01
  -3.6245367e-01
   6.4858572e-01
   1.2559725e+00
   1.4741382e+00
   4.1152139e-01
  -4.2488435e-01
  -5.5817854e-01
  -9.6203752e-02
   2.7406990e-01
   9.8812312e-02
   3.4708038e-01
   2.0147666e-01
   7.1121287e-02
   2.7287083e-01
   2.9396440e-01
  -1.7981633e-01
   2.6514879e-01
   1.8465409e-01
   6.0893871e-02
   3.8638061e-01
  -1.3073662e-01
  -1.0026694e-01
   5.4100975e-01
   1.7949835e-01
   3.2982008e-01
   6.1973550e-01
   2.5515954e-01
   5.0181089e-01
   5.7118570e-01
   2.3809145e-01
   4.7074869e-01
   3.9554262e-01
   4.8401378e-01
   4.0757044e-01
   3.4957561e-01
   1.2690831e-01
   5.0693488e-01
   5.1215233e-01
   3.9086729e-01
   4.8482879e-01
   1.6838229e-01
  -9.9625442e-02
   2.5647883e-01
  -6.0116724e-02
   4.0106652e-01
   4.7115687e-01
  -1.0647920e-01
  -6.4365621e-03
   3.6032816e-01
   1.2015279e-01
   1.4566493e-01
  -1.9849011e-01
   1.8664693e-01
   1.8146802e-01
   2.6487637e-01
  -1.8073583e-01
   3.1660462e-01
  -1.1901763e-01
   1.3713300e-01
   3.9732215e-01
   4.3061848e-01
   4.2303194e-01
  -5.6387677e-02
   2.5276853e-01
  -1.1038229e-01
   3.3808306e-01
   1.8555487e-01
  -1.9344466e-01
   1.4128398e-01
   4.0934768e-01
   3.2126397e-01
   2.6197512e-01
   2.2688230e-01
  -9.7668915e-02
  -2.4739937e-01
   7.3067825e-02
  -1.3830276e-01
  -5.7383522e-02
   1.2325847e-01
   3.5065697e-01
   6.9053110e-01
   1.5002509e-01
   2.6119157e-01
   4.6064803e-01
  -9.4226512e-02
   2.5153121e-01
  -2.8892132e-01
   2.3748533e-01
  -5.5377642e-03
   3.1573082e-01
   1.1306164e-01
   3.5453409e-01
   5.0050217e-01
   1.2875572e+00
   9.4083223e-01
  -3.4051175e-01
  -4.2180450e-01
  -2.1573236e-01
  -2.7126834e-01
  -2.5139912e-01
   1.2937276e-01
   2.3950488e-01
   1.4967656e-01
  -2.0929085e-01
  -2.1787611e-02
   1.8783338e-01
   8.9072586e-02
   4.3250945e-01
  -5.4776407e-02
   3.9459923e-01
   8.4335827e-02
  -5.1705846e-02
  -6.4517552e-02
   4.0972036e-01
   1.9793661e-01
   2.3379588e-01
   2.2390139e-01
   2.3349279e-01
   2.2913970e-01
   3.8664787e-01
   7.5865707e-01
   3.3165867e-01
   7.2231454e-01
   1.3389642e-01
   6.1444338e-01
   4.5492160e-01
   4.8644992e-01
   2.6844570e-01
  -1.0312330e-01
   1.2049524e-01
   2.4982216e-01
  -1.6817279e-01
  -1.7861735e-01
  -5.6955671e-03
   4.4342293e-01
   1.5614579e-01
   4.0898559e-01
   6.5890760e-02
   4.1032353e-01
   1.6545150e-01
   3.9087599e-01
  -1.5206728e-01
  -8.5625392e-02
   2.4201070e-01
   1.3776385e-02
  -2.5824812e-01
   1.4734755e-02
  -3.5237050e-02
   5.9486320e-03
  -1.4257337e-01
  -1.2294165e-01
   1.4604572e-01
   1.5150871e-01
  -1.6894479e-01
   3.8337081e-01
  -2.5543489e-01
  -1.3363610e-01
   6.0877025e-02
   2.4149452e-01
  -1.8277592e-01
   3.7668216e-01
   1.0238136e-02
  -2.3563302e-01
   1.8170151e-01
  -7.9429397e-02
   3.0070867e-01
   4.9357980e-01
   3.1630551e-01
   2.1337304e-01
   5.3743056e-02
   1.6078925e-01
   2.5098498e-01
  -1.6781962e-01
  -3.2817291e-02
   1.3183505e-01
  -2.6548833e-01
  -2.4691049e-01
   7.2403503e-02
   3.2622366e-02
  -3.4981708e-02
   4.1600026e-01
   7.3362950e-01
   1.3008615e+00
   1.6133302e+00
   3.6901738e-01
  -2.6562010e-01
  -2.4961171e-01
  -3.2343312e-01
   1.7291810e-01
   2.9586243e-01
   1.4587296e-01
  -5.0002352e-03
  -1.2158584e-01
   9.4651175e-02
  -6.6530824e-02
   3.7961159e-01
   4.7320694e-02
   4.3120747e-01
   2.5622055e-01
   2.9694836e-01
   4.9802063e-01
   5.1549133e-01
   4.7114949e-01
   2.1129836e-02
   5.4870509e-01
   3.2224241e-01
   2.4636766e-01
   4.2854102e-01
   6.4931009e-01
   4.4450289e-01
   2.6393396e-01
   2.9981992e-01
   1.5765105e-01
   2.2733536e-01
   6.4619875e-02
   4.7174177e-01
   1.2560495e-01
  -1.7170978e-01
   2.2898786e-02
   3.8724561e-01
  -1.6006681e-03
   3.3334484e-01
   1.6340543e-01
  -1.0097350e-01
   1.6390477e-01
   4.4358458e-03
   2.9651504e-01
   3.1512199e-01
   1.0073526e-01
  -7.6614977e-02
  -1.0925028e-01
  -3.8247881e-02
   2.0070297e-01
   3.1502454e-01
   2.2314757e-01
  -4.8813748e-02
  -1.6477669e-01
  -9.7432798e-02
   2.1472273e-01
  -2.0444214e-01
   9.4337882e-02
   4.2041388e-01
   3.6858601e-01
   1.2274103e-01
   2.6159778e-01
   2.5771290e-01
   2.2664764e-01
   1.9897765e-01
  -6.7524660e-02
   1.2204289e-01
   1.4788571e-01
   2.9458281e-01
  -2.6425446e-01
  -1.4545890e-01
   4.1094108e-01
   2.7650961e-01
   1.5677029e-01
   1.9175583e-01
   3.5494388e-01
   2.9895046e-02
   2.8454944e-01
  -1.0546280e-01
   3.5001575e-01
   2.8916810e-01
   4.4504317e-01
  -8.4906801e-02
   4.3072896e-01
   3.3709227e-01
  -1.4957213e-01
   5.0120280e-02
  -2.2594672e-02
  -6.5241141e-02
  -1.9066334e-01
   1.1226830e-01
   7.4645514e-01
   1.5814386e+00
   6.7563681e-01
  -2.3157483e-01
  -4.5196101e-01
  -6.2599865e-01
   1.1637787e-01
   2.9382656e-01
   2.3283920e-01
  -2.8667304e-03
   1.3444328e-01
   1.2023964e-02
  -9.5949788e-03
  -2.6857270e-01
   3.7115150e-01
  -2.4233748e-01
   9.0476765e-02
   5.2196290e-02
   1.9595185e-01
   5.2076691e-01
   4.8371911e-01
  -1.0274595e-01
   4.8822364e-01
   3.0650374e-01
   2.7989287e-01
   5.8783997e-01
   6.5870701e-01
   7.6040173e-01
   2.0345268e-01
   6.5540621e-01
   2.5160978e-01
   2.8916879e-01
   5.4267900e-01
   1.8395674e-01
   1.7446673e-01
  -1.0009483e-01
   2.8823957e-01
   3.1784395e-01
   6.4384842e-03
   3.7400963e-02
   2.9476585e-01
   4.8549707e-01
   2.8975435e-01
  -1.2149593e-01
   1.2500520e-01
   2.3518003e-01
   1.7805161e-01
  -1.0576233e-01
  -2.6902127e-02
   4.5614588e-01
   3.3160967e-01
   4.1338215e-01
  -6.1546857e-03
  -1.0368526e-01
   2.2111389e-01
  -1.1408613e-02
   6.1592593e-02
   3.6581274e-01
   3.0811756e-01
  -1.6490194e-02
   2.3826301e-01
  -7.7123870e-02
  -6.6153816e-02
  -8.2955685e-02
  -2.5838703e-01
   3.5164885e-01
   1.7931694e-01
  -1.3697341e-01
   5.7115133e-02
   2.4731153e-01
  -1.9996607e-02
  -1.6821497e-01
   2.2457838e-01
   2.5963148e-01
   2.6388251e-01
   2.6229293e-01
   3.6706859e-01
   2.7642852e-01
   1.9891195e-01
  -1.1079526e-01
   2.2965047e-01
  -1.1157802e-01
  -1.1549395e-01
  -2.7676833e-01
  -1.3264000e-02
  -4.0495142e-01
  -5.7341192e-02
  -3.8499705e-01
  -3.7730189e-02
   1.9711096e-01
   1.3380248e+00
   2.0203144e+00
   1.2164858e-02
  -7.0465403e-01
  -7.5547187e-01
  -4.2641498e-01
  -1.1647494e-01
  -2.9792854e-01
  -6.2913330e-02
   1.1012284e-01
   5.2023070e-02
  -6.3168023e-02
   1.7489105e-01
   1.7680295e-01
  -1.6626205e-01
   4.9314330e-02
   4.4255225e-01
   1.8560676e-01
   2.4073223e-01
   3.8654101e-01
   6.4120113e-02
   4.0188730e-01
   1.6252706e-01
   4.0554787e-01
   4.8035485e-01
   3.2515018e-01
   2.5007929e-01
   7.3052770e-01
   3.8996066e-01
   4.3291239e-01
   4.9998478e-01
   4.6821623e-01
   2.7777535e-01
   3.1492773e-02
   3.6140325e-01
   4.7771666e-01
   7.9626461e-02
   2.4728777e-01
   4.1784553e-01
   1.3806368e-01
   2.3081039e-01
   1.2538393e-01
  -1.2377355e-01
  -1.2607936e-01
  -1.2480252e-01
   1.0661819e-01
   4.5673166e-01
   2.2314350e-01
   4.1017580e-01
  -1.8164586e-01
  -1.5868539e-02
   4.0904280e-01
  -2.4360389e-01
  -1.3344621e-01
   2.7269843e-01
   3.2261620e-01
   1.6797654e-01
   7.6349457e-02
   3.8374093e-01
   2.3751821e-01
   2.2436204e-01
   2.2984259e-01
   3.1515095e-01
   3.7829030e-01
   4.0068067e-01
   3.4131472e-01
  -8.8359134e-02
  -2.6082465e-01
   2.8776642e-01
  -1.9133144e-01
  -2.7761239e-01
   2.2279711e-01
   7.6169339e-02
  -5.5188364e-02
   1.9741787e-01
   4.1575397e-01
   2.7219384e-01
   2.2153622e-01
   3.2953519e-01
   4.9369714e-03
  -1.2347126e-02
  -9.9017202e-02
  -8.6094070e-02
   2.6690044e-01
   5.6089211e-02
   1.6226649e-01
  -1.1601220e-01
  -3.2032509e-01
   1.4480084e-01
   6.8260754e-01
   1.2304499e+00
   1.6666944e+00
   6.5894281e-01
  -2.3223254e-01
  -7.6949263e-01
   1.4967731e-03
  -8.6624496e-02
  -2.1773593e-01
  -2.7348644e-01
  -1.9190839e-01
   4.2026042e-02
  -2.8662227e-01
   1.0945252e-01
  -2.7887476e-01
   3.4062619e-02
  -5.1693092e-02
   4.2106021e-01
  -1.7408130e-02
   1.2010896e-01
   2.8300685e-01
   1.2697608e-01
   5.4651219e-03
   1.7715514e-02
   1.7862117e-01
   6.0665769e-01
   4.7894722e-01
   2.0895418e-01
   7.5086207e-01
   3.8110521e-01
   6.5423119e-01
   4.1695136e-01
   1.2044754e-02
  -4.0836282e-02
   4.4957788e-01
   1.7242326e-01
   4.1295186e-02
   3.9833583e-01
   2.4840024e-01
  -2.1743561e-02
   2.3009782e-01
  -2.1661176e-02
  -9.8892438e-02
   3.6726609e-02
   1.5490294e-01
   4.2203878e-01
   3.0286864e-01
  -1.1317071e-01
  -2.1963385e-01
  -1.4781530e-01
   4.1005013e-01
   2.3362055e-01
  -1.7228164e-01
   4.1015485e-01
  -1.7850615e-01
   7.2546688e-02
  -2.4294921e-02
   5.1716001e-02
  -2.4120858e-01
  -5.1416338e-02
  -8.7330341e-02
  -1.2042249e-01
   3.8573838e-01
  -2.6999593e-01
   3.4652983e-01
  -5.4897550e-02
   1.5586196e-01
   3.6455054e-01
  -2.1716721e-01
   1.7159334e-01
  -1.4489762e-02
  -2.2501653e-01
   5.0945334e-02
   9.6768504e-03
   3.1046024e-01
   1.8861628e-01
  -2.9046469e-02
   2.7132515e-01
   2.6802707e-01
   5.5422241e-01
   5.5373053e-01
   1.1064474e-01
   1.1485446e-01
   3.1351765e-01
   3.7697710e-01
   2.0744681e-01
  -4.9575752e-02
  -1.0263914e-02
   2.7285672e-01
  -3.0826253e-01
  -1.1256347e-01
   2.3689882e-01
   1.5415786e+00
   1.5692943e+00
   1.4182045e-01
  -5.1644074e-01
  -4.4676673e-01
  -3.4826404e-01
  -2.0428658e-01
  -9.3535699e-02
  -9.7890692e-02
  -2.8296727e-01
  -2.4357384e-01
   8.1384337e-02
   1.4871946e-01
   2.7300884e-01
   6.4112865e-02
  -5.5792794e-02
  -1.0706854e-01
  -1.9183938e-01
  -3.7975075e-02
   1.0076075e-01
   2.5630149e-01
   2.8753779e-01
   5.0380850e-01
   4.0676197e-01
   1.0098519e-01
   4.8192318e-01
   1.1878996e-01
   3.2439627e-01
   2.8434411e-01
   5.7716635e-01
   8.9978555e-02
   5.2803117e-01
   9.6441729e-02
   3.9507065e-02
  -1.3881041e-01
  -8.9542536e-02
  -6.5776719e-02
  -7.2491965e-02
   4.1156360e-01
  -1.8124345e-02
  -1.5966637e-01
   3.3026461e-01
   2.2948146e-01
   1.9601482e-01
   2.7725923e-02
   2.6023561e-01
  -4.9583202e-02
  -2.2526789e-02
  -1.3109835e-02
  -9.6604751e-02
   2.2572969e-01
   2.5677094e-01
  -2.6149943e-01
  -2.4445524e-02
  -1.1569048e-01
   3.7559424e-01
   2.4528569e-01
  -1.3307359e-02
   1.9121778e-01
   1.9518594e-01
   1.2418049e-01
   3.8926721e-01
   2.5269688e-01
   8.2580704e-02
  -2.3349524e-01
   3.2074054e-01
  -1.3429250e-01
   3.4842129e-02
  -7.3127509e-02
   2.3498142e-01
   2.3716089e-01
   2.6727502e-01
   3.1366468e-01
  -2.5382306e-01
   1.6741080e-01
   1.1649279e-01
   5.4616946e-02
   2.5664262e-01
   1.2592845e-01
   1.0920400e-01
   7.7935799e-02
  -9.6591931e-02
  -1.2067630e-01
  -4.1081122e-02
   3.0203796e-02
  -2.6832637e-01
  -3.6217932e-01
  -3.9064394e-01
   1.2581629e-01
   3.6191388e-02
   3.8037722e-02
   1.3020885e+00
   1.5068346e+00
   2.6257433e-01
  -2.4480579e-01
  -8.5030813e-01
  -6.9628193e-01
  -3.6737655e-01
  -3.8656427e-01
  -2.3960323e-01
  -3.3745645e-01
  -3.1563283e-01
  -1.4670027e-01
   3.8730668e-02
  -4.6901524e-02
   3.9920296e-01
   1.5211190e-02
  -1.5657597e-01
   2.9197669e-01
   3.0108775e-01
  -1.3645810e-01
   1.7141424e-01
   5.7021875e-02
   1.9676143e-01
   2.4305694e-01
   5.9669917e-01
   5.1681555e-01
   4.6673326e-02
   3.3798500e-02
   1.9741055e-01
   4.5522503e-01
   6.7470254e-01
   2.3037786e-01
   2.4633602e-01
  -3.4465885e-02
   3.4166780e-01
   3.2113329e-01
   3.3864048e-01
   4.2026677e-01
  -1.8594252e-01
   3.1592914e-01
   9.7360034e-02
  -2.9069704e-02
  -2.0323862e-01
   3.3166648e-01
   4.0469166e-01
   3.2320781e-01
   3.4636833e-01
  -8.8282804e-03
  -1.1616393e-01
   9.8324864e-03
  -8.5717113e-02
  -2.6520261e-01
  -7.5007833e-02
  -1.1208318e-01
  -1.3864299e-01
  -5.6776950e-02
   8.5396985e-02
  -2.1366401e-01
  -1.7084349e-01
   5.6197043e-02
  -3.6005717e-02
   1.7845379e-01
  -1.0113238e-01
   2.4885301e-01
   3.2334638e-01
   2.2428032e-01
  -9.2423682e-02
   1.9208809e-01
  -2.9300987e-01
   1.0933499e-01
  -2.5314902e-01
  -2.7633363e-01
  -2.1318472e-01
  -2.0355496e-01
   4.8181941e-01
   1.9558732e-01
   4.9223859e-01
   3.4065669e-01
   3.3994087e-01
  -1.8778153e-02
   3.4624382e-01
   8.0286764e-03
  -3.3721647e-01
   1.5591240e-01
   4.9025005e-02
  -1.4558441e-01
   2.5256503e-02
   1.1505252e-01
   6.1108863e-01
   1.6463582e+00
   9.0596052e-01
  -1.9660243e-01
  -5.8811083e-01
  -6.0751595e-01
  -4.3037759e-01
   3.0046451e-01
  -3.0843823e-01
  -1.4478126e-01
  -3.3726735e-01
   2.8676839e-01
  -7.2794637e-02
   3.4834096e-01
   7.6269971e-02
   9.5094575e-02
  -1.3777572e-01
  -9.8535612e-02
   1.1525444e-01
  -4.5887728e-02
   4.9119465e-01
   5.9643185e-02
   5.6740046e-01
   5.1060275e-01
   2.2979114e-01
   2.0118161e-02
   2.5862498e-01
   3.1891621e-01
   1.1006233e-01
   7.0815836e-01
   1.4263469e-01
   9.9759303e-02
   2.7436872e-01
   2.4013520e-01
  -1.2467521e-01
   5.1119912e-02
   1.8349140e-01
   4.6538032e-01
   4.8568694e-02
   2.1609642e-01
  -2.4964770e-01
  -1.4448103e-01
   3.8833952e-01
  -2.2395287e-01
  -2.2596603e-01
   1.5053755e-01
  -1.3369377e-02
  -1.0322049e-01
   3.6598395e-01
   2.0627291e-01
  -1.6813704e-02
  -1.2637768e-03
  -1.4364596e-01
  -1.2081463e-01
   3.3176944e-01
   3.2750815e-01
   2.2471320e-01
  -1.3317899e-01
   9.0918302e-02
  -1.7637923e-01
  -2.2880990e-01
   1.6353202e-01
   3.2460161e-01
   2.0266313e-01
   2.3796206e-01
  -1.6556886e-01
  -7.2510357e-02
  -4.0230199e-02
   3.2165847e-01
  -2.5458250e-01
   4.8352158e-02
   1.1120436e-01
  -7.2470068e-02
  -8.0354978e-02
   6.7002458e-02
   8.9875234e-02
   5.4303390e-02
   5.0636060e-01
   9.9146545e-02
   2.0995039e-01
  -1.3204764e-01
  -4.9623767e-02
  -4.0956624e-01
  -9.2433694e-02
  -2.5086078e-01
   4.4176511e-02
   3.3771509e-02
   5.9243584e-02
   9.1119358e-01
   1.7575066e+00
   1.2379898e+00
  -8.3364707e-02
  -9.5088282e-01
